ID,u1,u2,u3,u4,u5,u6
0,0.3641138098520509,0.19746603472018598,-0.10007949989930076,-0.04549160273081343,-0.10248150491636743,-0.061101486055738174
1,0.37382503147409185,0.2042637352817276,-0.10251245946047874,-0.048388707679606124,-0.10612078862354934,-0.061727660677304286
2,0.3834974103214188,0.21105208412265264,-0.10496592101352205,-0.05147375022718759,-0.11010545401717131,-0.062223453301325726
3,0.3931641338182419,0.2176658384959298,-0.10748955751612756,-0.05468795465043419,-0.11421775033660442,-0.06273568426286724
4,0.40292043306237346,0.2239931009509868,-0.1101534814407092,-0.058017878509906584,-0.11826800500406165,-0.06342797110670295
5,0.4125086740943833,0.23014967003860987,-0.11270750709884571,-0.06160533362091014,-0.1226126298404484,-0.06414934138227535
6,0.42179037638532835,0.2361862311391738,-0.11498599189716904,-0.06555498473707244,-0.1274506644769806,-0.0648389439996171
7,0.4311597539283314,0.242150196534622,-0.11733174509262112,-0.06962831439826278,-0.13248446538253145,-0.0654714554842668
8,0.4395943142057135,0.24728763884915916,-0.11925637413555663,-0.0733205829663075,-0.13769044928631313,-0.06600009293935472
9,0.4461757793506731,0.25005623719570425,-0.1213300358755617,-0.07563258112657012,-0.14207347248168922,-0.06705220771411957
10,0.45,0.25072425421398803,-0.1226832574583463,-0.07733828737566872,-0.14636204904724082,-0.06849429234892312
11,0.45,0.24988536740984157,-0.12359701785954702,-0.07855315603441371,-0.15023423774806233,-0.07023455878448859
12,0.45,0.24804390285734446,-0.12438624640997809,-0.0794269660067708,-0.15336427865899438,-0.07239505476789265
13,0.45,0.24528887593398818,-0.12449902189705114,-0.08048912837253752,-0.15651311343623941,-0.07499240812538366
14,0.45,0.24253672197710396,-0.12451018521535683,-0.08188377298903271,-0.159494480203775,-0.07787778955526914
15,0.45,0.24011048389594958,-0.12461108916388534,-0.08357047535417017,-0.1625329611379991,-0.08079625346522912
16,0.45,0.2380417461613462,-0.12496389790378136,-0.08552563645327593,-0.1658661314374852,-0.08364858967767086
17,0.45,0.23632665066653313,-0.12559210922797898,-0.08768484714714742,-0.16940822511612552,-0.0864171251922965
18,0.45,0.23508035346052192,-0.1264442400704477,-0.09006956216063111,-0.1731780957719531,-0.0890012571378751
19,0.45,0.23404783867311374,-0.12742403739613567,-0.09265584270837834,-0.17705349189311992,-0.09156707563633892
20,0.45,0.23276575988778303,-0.12826556825662463,-0.09543719554766827,-0.18077092704664288,-0.09443240628620186
21,0.45,0.2313012931246703,-0.1290186007460845,-0.09830211641263986,-0.18430229046329938,-0.09748632198950657
22,0.45,0.22950250419634322,-0.12971983511781918,-0.10117900593319629,-0.18758229211764466,-0.10079159541299276
23,0.45,0.22758325367710563,-0.1302541043821162,-0.10411261119744308,-0.19077619524181078,-0.1042087205104778
24,0.45,0.22569069675415743,-0.13078833133040513,-0.10701403218332439,-0.19366761687277112,-0.10770405643249958
25,0.45,0.2237223697480315,-0.13115186916415272,-0.11007782315827885,-0.19647440297571883,-0.11142885941240133
26,0.45,0.2219027517747676,-0.13129632647332895,-0.11318674338747492,-0.19920395644543643,-0.11510562223647502
27,0.45,0.22005235293440495,-0.13119751533506013,-0.11639077228547867,-0.20192611757069656,-0.11886304362524402
28,0.45,0.21823428658241495,-0.1310335137028448,-0.11958399358843153,-0.20443260078893744,-0.12264469852913074
29,0.45,0.21704372515670256,-0.1314455931688167,-0.12248304060317139,-0.2062719596229936,-0.12625998684085982
30,0.45,0.21584636351439435,-0.13139446763232107,-0.1254973740271006,-0.20800727584434942,-0.12994689240688295
31,0.45,0.21440659318426136,-0.1306763999305078,-0.12874181979545352,-0.20980854620807587,-0.13376128587808322
32,0.45,0.2127528403443102,-0.12961552448735583,-0.1320274926865883,-0.21154956619354692,-0.13762687971252774
33,0.45,0.21089862391923675,-0.1284681404180148,-0.1352134972867307,-0.2128625104725952,-0.1416229804559097
34,0.45,0.20911328918281957,-0.1272551669205649,-0.13834056645848536,-0.21366655041076044,-0.14572134444842977
35,0.45,0.20732249631916733,-0.12597717181662757,-0.14143889479583693,-0.21407054320410968,-0.1498830550903527
36,0.45,0.20585515309311186,-0.12442209473603169,-0.14472524327515002,-0.21445608204433686,-0.15402821917568277
37,0.44823730578439935,0.20444777123497548,-0.12255847250481525,-0.148080986433913,-0.21511300728818394,-0.15800908059610697
38,0.4457016032785539,0.2035200743274297,-0.12086629265260683,-0.15133448293304408,-0.2156689651015693,-0.16169130275224974
39,0.4427092466471234,0.20234325459233626,-0.11903286805628188,-0.15428752078631236,-0.21600326570569983,-0.16533033421027898
40,0.43933021427019003,0.20097076242804013,-0.11705230219293575,-0.1570010308489711,-0.21614166419561975,-0.16892434060663764
41,0.43594654568041147,0.19952177428026197,-0.11514600874493514,-0.15943873333420155,-0.2158568500007867,-0.17251957200660817
42,0.43245069773845923,0.19837058259499174,-0.11304655792215534,-0.16199095323534474,-0.2159302663021565,-0.17578840462073853
43,0.4296505982358245,0.19766598837342153,-0.11138911879755271,-0.16437469428207452,-0.21572265273953128,-0.17884800998688277
44,0.4263674959027828,0.19686391871210507,-0.10935542662226048,-0.1669251927226778,-0.21572215725256427,-0.1818502343294912
45,0.42286773605624406,0.19589431841430094,-0.10732206836762463,-0.1694017558204024,-0.21558387208288288,-0.18477154541835716
46,0.41998166512348956,0.19513820429304785,-0.10580095871306276,-0.17154126114199064,-0.21495798318594783,-0.1875373188597269
47,0.41699234555964626,0.19415526815609185,-0.1043437685757284,-0.17342292833975126,-0.21397374323873297,-0.1902963477698285
48,0.4138325218154706,0.19280499543104268,-0.10290753839059684,-0.17505690292711495,-0.2125241114389711,-0.1932032053702435
49,0.4107371178104815,0.19154636362717392,-0.10137807898649111,-0.1766469007287106,-0.2109982962433259,-0.19603713475143358
50,0.40784272383690245,0.19038778757846275,-0.10011618946016321,-0.1780914308734376,-0.20949033649272142,-0.19860186627270826
51,0.40495591161900224,0.18916276695750156,-0.09885621779034157,-0.17944888324469144,-0.20787437136663023,-0.20111138004314988
52,0.4022150038676249,0.18790799204218178,-0.0976293790888538,-0.18069450100005646,-0.2059793328117756,-0.20364995822944154
53,0.3995477444412412,0.1867303488045733,-0.09636042282196536,-0.18197251936960157,-0.20415544570519817,-0.20608676196835773
54,0.3968692795371851,0.185692323372864,-0.09502818076721432,-0.18328912335362668,-0.2026233977083658,-0.20827628961393385
55,0.3944010207157129,0.18476219395210203,-0.09367067906380647,-0.18455211208614974,-0.20098562633098993,-0.2104206217018727
56,0.3923339759939841,0.18382332670302626,-0.09276697701712133,-0.18552388234799766,-0.1990778165568221,-0.21241414591852958
57,0.39006736378346085,0.18258574875620015,-0.09186454130958743,-0.18631221697592526,-0.19707358124066587,-0.2143574631775853
58,0.38527882802665125,0.17986217712439623,-0.08948318744263584,-0.18754246929384522,-0.19577581929706422,-0.21651333281662177
59,0.380254251623108,0.17690355841994698,-0.08685485845492072,-0.18875333004201478,-0.19435964605191636,-0.2187322263536391
60,0.37555988805846585,0.17390305810446893,-0.0844183680956719,-0.18982567500877945,-0.19254148878390698,-0.2210152264793206
61,0.370996702040856,0.17090273928366417,-0.08217144671288733,-0.1908277805771359,-0.19069832722981594,-0.22318364344793284
62,0.3663232291044336,0.16795130515800416,-0.07990973176595201,-0.1918026886575923,-0.18914274842767576,-0.22515875505542704
63,0.3622406171393475,0.16534320957786242,-0.07782733573873736,-0.19269581114007783,-0.18735285725865047,-0.2271288669735796
64,0.35807989255607,0.16266922542308015,-0.07570131163071855,-0.19365517443445723,-0.1855436327030473,-0.229153352755465
65,0.3562249236555388,0.16092368513828648,-0.0748815273994998,-0.1941072126924306,-0.1821691273814432,-0.23148078720982568
66,0.35440006907581134,0.1591905106661391,-0.07397784673074334,-0.19456082811575337,-0.17859834169203115,-0.2338855821030683
67,0.3524973504475146,0.15744674237347178,-0.073007407571732,-0.19498356751321966,-0.17494277275608638,-0.23631767599617248
68,0.35041184671560854,0.15564453846220894,-0.07195791215198948,-0.19537140988269153,-0.17124843209986906,-0.23880272956475768
69,0.3481901523033799,0.15386417867571978,-0.07084246077639206,-0.19576685190378784,-0.16754638498352747,-0.2413090365876127
70,0.3459927361983337,0.15239266444907718,-0.06976384083226479,-0.19622738411417195,-0.16410549095601645,-0.2436435339607299
71,0.34382627156446555,0.15091046929220764,-0.0689845550449985,-0.19663331485758606,-0.16057285539195387,-0.24590709376175335
72,0.3389737789736551,0.14850794562948688,-0.06629138793173248,-0.19783353143669302,-0.15814584474734783,-0.24823779491439124
73,0.33422521776530045,0.14615469165511263,-0.06369037028474273,-0.19903295567003187,-0.15540318811830733,-0.2505975021881608
74,0.32940903300789204,0.14382452158361114,-0.06101698741405803,-0.20019893229018404,-0.1523695038836328,-0.2530310086586329
75,0.3245132064728806,0.1414304953831449,-0.05853526530177944,-0.20106745686228322,-0.14904771260788152,-0.25532827988385964
76,0.3186394169453557,0.13870751926722513,-0.0555725103490001,-0.20207604000386414,-0.1461034766846252,-0.257494115889529
77,0.313202282321555,0.13592964023520726,-0.0531382189939438,-0.20256181426827924,-0.14244487257769123,-0.25979161960816777
78,0.3075137203380458,0.1330842865569617,-0.050703246673752006,-0.20295463327068797,-0.13876385200101105,-0.26205123466188507
79,0.3006358165208072,0.12958444576483874,-0.04773246198867506,-0.20350419816624177,-0.13523997302227553,-0.2644262901009564
80,0.29559788917169394,0.12710080952557723,-0.046082217301495476,-0.20354776702525612,-0.13087166203874911,-0.2667430565092448
81,0.2911535546040347,0.12502227245572595,-0.04492886531410081,-0.20347051323469545,-0.12612109530476534,-0.2690881589106704
82,0.2865702175868883,0.12367678423364237,-0.04398218627458955,-0.2040183394572419,-0.1205542850357002,-0.27164525815628426
83,0.2820165674783013,0.12253126816905269,-0.04316130108797467,-0.20465214216650196,-0.11495753266057296,-0.2741358402827321
84,0.2773107444017291,0.12158571903288062,-0.04250917048224587,-0.2053520600378964,-0.1096834001964373,-0.2763622507522019
85,0.2726179470843997,0.1208859714429451,-0.041961400847122715,-0.20606158076077685,-0.10449868117740468,-0.2784710266774
86,0.26771713055412283,0.12007848559148049,-0.04159973023642169,-0.20656750190605822,-0.09935693024484138,-0.28039999620247835
87,0.2625674460909466,0.11902927742208225,-0.041363581098666335,-0.2068882788929316,-0.09421661635676948,-0.2822138543350454
88,0.25714980725472136,0.11780868552914692,-0.04125031912593216,-0.20710608530848784,-0.08915166974777033,-0.2839141499018689
89,0.2516967302721542,0.11666397999065081,-0.04098304564666805,-0.2074553322432804,-0.083858208274048,-0.2856733946126737
90,0.24674671090032474,0.11584038725035817,-0.040731691051261676,-0.2080480981191708,-0.07839594167197106,-0.2873769182853225
91,0.24138831372842517,0.11477935831365871,-0.04088932757236524,-0.20856801175469286,-0.07306329358445929,-0.2888519114785062
92,0.23605586571823078,0.11369802217108749,-0.041201256127736535,-0.20904457382806285,-0.06765921998695568,-0.2902522830523093
93,0.23029743034994077,0.11256211740386823,-0.0412254581114935,-0.20977496274704643,-0.06249495735232369,-0.29145035721802337
94,0.22495062680843825,0.11143325330182097,-0.04161921777128741,-0.2102125744366714,-0.056993644139305744,-0.292694137123382
95,0.21980800427618785,0.11013597997720037,-0.042119180743223766,-0.2103866242437138,-0.05104144447470382,-0.29414419308232453
96,0.21396667195972485,0.10831881614078043,-0.042433659901284726,-0.21046890506803573,-0.045219054129807645,-0.2955570680735402
97,0.208036326853275,0.10647332130690601,-0.04286286096764036,-0.21045718014502945,-0.039549571403299844,-0.29686502171024465
98,0.2023406158076715,0.10469049624459692,-0.04350662356232135,-0.210343968750617,-0.033783027192780146,-0.2981474678668796
99,0.19668776153500245,0.10288292520608255,-0.04438656799046867,-0.21020332459767266,-0.028051789996092147,-0.2993244971196072
100,0.19111292789057188,0.10123493438706732,-0.04525296605971846,-0.21014057899925653,-0.022248787991664187,-0.30049432643368235
101,0.18563537023171683,0.09968916382548709,-0.04626143858530357,-0.21009388678564633,-0.016395770085861017,-0.3016201563953729
102,0.1802018865990651,0.0982099764542943,-0.04742376349589014,-0.21004126361312148,-0.01053617522084771,-0.3026970422808368
103,0.17483880127380536,0.09677808939450028,-0.0487135955535172,-0.20994355736921566,-0.00463511116566373,-0.3037491363163065
104,0.1695460121521548,0.09542672770642824,-0.050144292993656386,-0.20980674095394658,0.0012796428105321667,-0.30477421737129173
105,0.1643632034895659,0.09432357833871885,-0.05180835441224568,-0.20972925767284778,0.006958417792610305,-0.3056054584603958
106,0.1593138610517415,0.09344022317109957,-0.05348645796927848,-0.20967230072209642,0.012735176907934687,-0.30646165707173445
107,0.15441248617024783,0.09275356900668741,-0.05529026887749186,-0.20963903100382586,0.018556603257630755,-0.3072850258348563
108,0.151927926510528,0.09325693906249888,-0.05821196328731609,-0.20915845345465156,0.02505814493630698,-0.3085058222708774
109,0.1494950386717262,0.09411101866575056,-0.061281928986507736,-0.2088121709687023,0.03111483538260096,-0.30945585815435717
110,0.1472866527138299,0.09495831233216068,-0.06451186232989152,-0.20833889232564617,0.03732387649488178,-0.3105001900829194
111,0.14516221871469615,0.09581009082838432,-0.06773829607890366,-0.20781392805457521,0.04364842586648354,-0.3115997247159914
112,0.1431653826104502,0.09659983861493937,-0.07105892598760176,-0.20724539329579805,0.05009661902828011,-0.3127207909959546
113,0.1412585244400426,0.0974927308051945,-0.07462572025891745,-0.20675514124363792,0.05609429557174295,-0.31358370428946447
114,0.1393030433398481,0.09778883022591867,-0.07831720142332269,-0.20587811232976883,0.06220384797127032,-0.3146386055846131
115,0.13472518703376624,0.0966196690236012,-0.08112830890131298,-0.2051057601690922,0.06722484414865093,-0.3149842495489503
116,0.1303257297258842,0.09556237519802369,-0.08412696273330754,-0.20433895994716078,0.07208855775332346,-0.31523034586837273
117,0.12622835368962493,0.09464291763611099,-0.08731724360492818,-0.20367507304274257,0.07704826313658941,-0.3154184054262803
118,0.12244761749637112,0.09387162533867821,-0.09068503404217405,-0.2031341986009476,0.08207506806950438,-0.3155188605152919
119,0.11888744322012057,0.09299720821175783,-0.09423595962739868,-0.20257066024341297,0.08721350678015849,-0.3156459257645796
120,0.11545564058002711,0.09201347038690821,-0.09790689497563955,-0.20193877108762148,0.09233022680725256,-0.3157770130596669
121,0.11207527431024777,0.09105057000390171,-0.10148659442579891,-0.2012258165998677,0.09748835112820942,-0.315950134511759
122,0.1111931537763775,0.09104989904305993,-0.10613042533780218,-0.20023911679977857,0.10278921248858186,-0.3166569034473863
123,0.11013526124614881,0.09098871299073852,-0.1107278701991535,-0.19926855247391062,0.10784063145426437,-0.3173105518496939
124,0.10903571041111171,0.0908777252603632,-0.11541812979411253,-0.1983610777396927,0.11252976091120992,-0.3178813019217168
125,0.10783619041389159,0.09090366181875686,-0.12008975948564003,-0.19759272917609128,0.11695278609703763,-0.31833938983756216
126,0.10761747074278416,0.09139160298547555,-0.12498631485973324,-0.19675844199152026,0.12171346022203533,-0.3191586562399342
127,0.10692399165947863,0.09195352723225159,-0.1297852475416,-0.19625595901936776,0.12606472214715847,-0.3196104560445292
128,0.10664015899733226,0.0924762770021823,-0.13471677940860183,-0.1957555655472638,0.1305201442388766,-0.3202277069137036
129,0.10648873405616621,0.09284074629703487,-0.1396462813907267,-0.1952691048820454,0.13490801678329944,-0.3209203162542824
130,0.1044851874096624,0.09204044996700511,-0.14390705036128673,-0.19494749997919802,0.13893912848924028,-0.32108469684877594
131,0.10232470117160064,0.0910878236494792,-0.1480271510452797,-0.1946357646183947,0.14263122463705447,-0.3211536286274841
132,0.0997652782772267,0.08917891277266077,-0.15097618427571466,-0.19405722959125438,0.1451897670353226,-0.3213096536988189
133,0.09709148536989387,0.08738868973319724,-0.15377503244928625,-0.19355146758215058,0.14741016066069346,-0.3213385646696585
134,0.09465529214113388,0.0857547854911016,-0.1565544208383963,-0.19308563993685368,0.14953097616140987,-0.32141532265713657
135,0.09206422341573184,0.08408939959261175,-0.15919848128340996,-0.19266770513426845,0.15149942940430083,-0.321429653727753
136,0.08968086513775608,0.08271664291282632,-0.16188238086432907,-0.192425647836032,0.1533401416773641,-0.3213733651557922
137,0.08760550047560267,0.0815217397369421,-0.16462154123159195,-0.1922719034175251,0.15522430027058753,-0.3213603509989449
138,0.08586098331602843,0.0803686000512076,-0.16735611835853023,-0.19212690258247944,0.15728818664400013,-0.32146636185888333
139,0.08408928521989267,0.07904856037863328,-0.17004914298362686,-0.1919888720558669,0.15890115606580668,-0.3215264492502401
140,0.0817300528254794,0.0774005361877228,-0.17261180880460508,-0.19171863039925663,0.16016034680831037,-0.32152783094011994
141,0.07971658465109943,0.07577360841659808,-0.1748254476264643,-0.19132244210533011,0.16174747550498303,-0.3217838459198319
142,0.07763699521112732,0.07413806494819486,-0.17692689070590317,-0.19092186821316126,0.1631263747627365,-0.3220214138319122
143,0.07545294797140745,0.07223179048003736,-0.17893646783778383,-0.19039879908421797,0.16451332183789624,-0.3224096874032325
144,0.0733534011794883,0.07054361174552226,-0.18097192993241001,-0.18998192268369518,0.16562665901818008,-0.3227279463957382
145,0.0711063782051986,0.06909950680620058,-0.18302543074460803,-0.18973905018119908,0.16643695307856188,-0.32282858737503073
146,0.06901303380668677,0.06788327448463005,-0.1851647232588974,-0.18962322934966513,0.16722275671848674,-0.3228526497648465
147,0.06708627598624473,0.06679483607671366,-0.18737380808549864,-0.1895702413350988,0.1680517169500373,-0.32286163524802713
148,0.06522211058060545,0.06570767198832961,-0.1896102727045247,-0.18954615635199357,0.16888150269414925,-0.3228612192307416
149,0.0632676639331824,0.06446232678456476,-0.19177792590704923,-0.18947399192323067,0.16974480683829984,-0.3228714776275705
150,0.06132626934716123,0.06311924500803956,-0.1938967254403738,-0.18936076625836096,0.17058958038816385,-0.32290608890297534
151,0.05960055990320301,0.061731710265813255,-0.19602889061557066,-0.18921299741429376,0.17148007590809744,-0.32303063171284396
152,0.057725207068007656,0.060250083974850766,-0.19807225292926112,-0.1890634325309999,0.17232494369531537,-0.3230669521557754
153,0.055933551866517384,0.05869326032879929,-0.2001219560915897,-0.1889047911717907,0.17318096464069477,-0.3231114071377199
154,0.05422628298396903,0.057039744862525055,-0.20214676237520804,-0.18871839531180967,0.17405679852721345,-0.32317713104143664
155,0.05257041949556163,0.055138230164913704,-0.20409659621168472,-0.1884215249527621,0.17503319920542815,-0.3233411083231337
156,0.05100720905864753,0.053076725582361206,-0.20598897658529383,-0.18805425021177502,0.1759969853292329,-0.32356634071970714
157,0.049365038004349326,0.050824219810135185,-0.2077805730499453,-0.18761691714083462,0.17687576769778524,-0.32378969188756024
158,0.04766322527415978,0.04861239652135807,-0.2095312797180518,-0.18722603470465105,0.17754427543129925,-0.3238849038151468
159,0.04625677442499265,0.046227361363083475,-0.2112999213657088,-0.18674427803105687,0.17841478590765547,-0.32416406723970503
160,0.04468210580214427,0.0439168988830847,-0.21303407385463793,-0.1863526294248854,0.17901392308852682,-0.32424352318152305
161,0.04304431786902008,0.04148070380654323,-0.21468092037676104,-0.18591923823709688,0.17951622479870455,-0.32431174550802044
