ID,u1,u2,u3,u4,u5,u6
0,0.35,0.14999999999999997,-0.21650635094610965,0.12500000000000003,-0.2598076211353316,0.0
1,0.34997236547133564,0.15325290955975793,-0.21806001150021093,0.12226950308448907,-0.2579022018352473,-0.004398113959173412
2,0.34988946624915496,0.15648161870853233,-0.21957923785066444,0.11951969839704807,-0.2559560567877961,-0.008795533405168117
3,0.3497513154242062,0.15968561759572017,-0.22106379009401808,0.11675102016371383,-0.2539694933118413,-0.01319156393447709
4,0.3495579348121061,0.1628644002727552,-0.2225134338022631,0.11396390559087503,-0.25194282510878485,-0.017585511362919342
5,0.349309354949895,0.1660174647730032,-0.22392794005985323,0.11115879479623188,-0.24987637221302986,-0.02197668183525968
6,0.34900561509121486,0.16914431319102802,-0.22530708549985282,0.10833613073929682,-0.2477704609414436,-0.02636438193477645
7,0.34864676320011034,0.17224445176121686,-0.22665065233920942,0.1054963591514457,-0.24562542384182834,-0.03074791879276011
8,0.34823285594345504,0.17531739093575163,-0.22795842841314393,0.10263992846553203,-0.2434415996404083,-0.03512660019792521
9,0.34776395868200294,0.17836264546191394,-0.22923020720865409,0.09976728974507382,-0.2412193331883404,-0.03949973470571858
10,0.34724014546006726,0.18137973445871244,-0.23046578789712513,0.09687889661302578,-0.23895897540725886,-0.04386663174750649
11,0.3466614989938279,0.1843681814928193,-0.23166497536604305,0.09397520518014671,-0.23666088323386025,-0.04822660173962332
12,0.3460281106582699,0.18732751465380473,-0.23282758024980504,0.0910566739729746,-0.23432541956353894,-0.05257895619226497
13,0.3453400804727538,0.19025726662865683,-0.2339534189596227,0.08812376386141964,-0.2319529531930822,-0.05692300781820925
14,0.34459751708522185,0.1931569747755761,-0.23504231371251255,0.08517693798598795,-0.22954385876243225,-0.06125807064134662
15,0.34380053775504105,0.1960261811970316,-0.23609409255937025,0.08221666168464582,-0.22709851669552691,-0.06558346010500361
16,0.34294926833448636,0.19886443281206853,-0.2371085894121233,0.07924340241933797,-0.22461731314022584,-0.06989849318004246
17,0.3420438432488677,0.2016712814278548,-0.2380856440699582,0.0762576297021694,-0.22210063990733345,-0.07420248847271911
18,0.341084405475302,0.2044462838104559,-0.23902510224461807,0.0732598150212644,-0.21954889440872735,-0.0784947663322834
19,0.3400711065201359,0.20718900175482688,-0.23992681558476667,0.07025043176631278,-0.2169624795946026,-0.08277464895830364
20,0.3390041063950209,0.2098990021540096,-0.24079064169941455,0.06722995515381643,-0.214341803889841,-0.08704146050769918
21,0.33788357359164584,0.21257585706752583,-0.2416164441804044,0.06419886215204697,-0.2116872811295162,-0.09129452720146393
22,0.33670968505513005,0.21521914378895357,-0.2424040926239515,0.06115763140572688,-0.20899933049354422,-0.09553317743106382
23,0.33548262615608154,0.21782844491267758,-0.24315346265123589,0.05810674316044602,-0.2062783764404902,-0.09975674186449163
24,0.334202590661325,0.22040334839980238,-0.24386443592804327,0.05504667918682539,-0.20352484864054146,-0.10396455355196221
25,0.3328697807033037,0.22294344764321825,-0.2445369001834514,0.05197792270443986,-0.20073918190765747,-0.10815594803123159
26,0.3314844067481605,0.2254483415318088,-0.24517074922755888,0.04890095830551212,-0.19792181613090784,-0.11233026343252331
27,0.33004668756250255,0.22791763451379138,-0.24576588296825386,0.04581627187838998,-0.19507319620500863,-0.11648684058304533
28,0.3285568501788559,0.23035093665917922,-0.24632220742701966,0.04272435053081917,-0.19219377196006845,-0.12062502311108096
29,0.3270151298598142,0.23274786372135578,-0.24683963475377507,0.03962568251302322,-0.18928399809055488,-0.12474415754963776
30,0.32542177006088796,0.23510803719775192,-0.24731808324074708,0.03652075714060291,-0.18634433408349313,-0.12884359343963728
31,0.3237770223920603,0.23743108438961572,-0.24775747733537318,0.03341006471726812,-0.18337524414590747,-0.1329226834326304
32,0.3220811465780546,0.23971663846086588,-0.24815774765223225,0.030294096457412656,-0.180377197131518,-0.13698078339302083
33,0.32033441041732114,0.24196433849601973,-0.24851883098400113,0.027173344408546317,-0.17735066646670258,-0.14101725249978192
34,0.3185370897397485,0.24417382955718542,-0.24884067031143597,0.02404830137359441,-0.17429613007573797,-0.14503145334764944
35,0.31668946836310685,0.2463447627401112,-0.2491232148123761,0.020919460833078916,-0.1712140703053295,-0.14902275204777543
36,0.31479183804822986,0.2484767952292812,-0.24936641986976937,0.01778731686719174,-0.16810497384844342,-0.1529905183278265
37,0.3128444984529423,0.2505695903520502,-0.249570247078718,0.01465236407777417,-0.16496933166745195,-0.15693412563151127
38,0.31084775708474055,0.25262281763180766,-0.24973466425254282,0.011515097510213072,-0.16180763891660507,-0.16085295121752075
39,0.30880192925223365,0.2546361528401645,-0.24985964542786607,0.008376012575267922,-0.1586203948638395,-0.1647463762578664
40,0.3067073380153522,0.256609278048152,-0.24994517086871137,0.005235604970839263,-0.15540810281193904,-0.16861378593560036
41,0.304564314134334,0.2585418816764265,-0.24999122706962015,0.0020943706036926496,-0.15217127001905675,-0.17245456954190203
42,0.30237319601749235,0.2604336585444717,-0.2499978067577844,-0.0010471944888509452,-0.14891040761861307,-0.17626812057251626
43,0.30013432966777825,0.2622843099187901,-0.2499649088941951,-0.004188594217245287,-0.1456260305385822,-0.18005383682352724
44,0.2978480686281421,0.264093543560076,-0.24989253867380626,-0.0073293325180570565,-0.14231865742017877,-0.18381112048645348
45,0.29551477392570524,0.2658610737693644,-0.2497807075247146,-0.010468913432299906,-0.13898881053595852,-0.18753937824264882
46,0.2931348140147496,0.2675866214331452,-0.24962943310635496,-0.013606841183752246,-0.13563701570734527,-0.1912380213569942
47,0.2907085647185344,0.2692699140674392,-0.24943873930671165,-0.016742620257246165,-0.13226380222159756,-0.19490646577086576
48,0.2882364091699496,0.2709106858608262,-0.24920865623854618,-0.01987575547691491,-0.12886970274822845,-0.19854413219436476
49,0.28571873775101436,0.27250867771641935,-0.2489392202346423,-0.02300575208438678,-0.1254552532548905,-0.20215044619779365
50,0.28315594803123156,0.27406363729278027,-0.24863047384206835,-0.026132115816913333,-0.1220209929227401,-0.2057248383023656
51,0.2805484447048068,0.2755753190437662,-0.24828246581545885,-0.0292543529854193,-0.11856746406129497,-0.20926674407013157
52,0.2778966395267424,0.2770434842573047,-0.24789525110931543,-0.0323719705524617,-0.11509521202279688,-0.21277560419311187
53,0.2752009512478166,0.27846790109308894,-0.24746889086932894,-0.03548447621008609,-0.11160478511609444,-0.216250864581617
54,0.27246180554845817,0.27984834461918834,-0.24700345242272378,-0.0385913784575678,-0.1080967345200584,-0.21969197645174518
55,0.2696796349715262,0.2811845968475674,-0.24649900926762625,-0.04169218667902556,-0.10457161419654458,-0.2230983964120414
56,0.2668548788540067,0.282476446768509,-0.24595564106145815,-0.04478641122089553,-0.10102998080291649,-0.2264695865493055
57,0.2639879832576363,0.2837236903839351,-0.24537343360835823,-0.047873563469253234,-0.09747239360414289,-0.22980501451353477
58,0.2610794008984637,0.28492613073962003,-0.24475247884563245,-0.05095315592697119,-0.09389941438448345,-0.23310415360198808
59,0.2581295910753608,0.28608357795629275,-0.24409287482923622,-0.0540247022907005,-0.09031160735877615,-0.23636648284235856
60,0.255139019597494,0.28719584925962016,-0.24339472571829007,-0.05708771752766389,-0.08670953908334149,-0.23959148707504105
61,0.25210815871076736,0.28826276900906955,-0.24265814175863185,-0.0601417179522479,-0.08309377836651669,-0.24277865703448176
62,0.24903748702324985,0.2892841687256444,-0.24188323926540747,-0.06318622130238234,-0.07946489617883422,-0.2459274894295972
63,0.2459274894295972,0.29025988711848894,-0.24107014060470366,-0.06622074681569516,-0.07582346556285884,-0.24903748702324985
64,0.2427786570344817,0.2911897701103582,-0.24021897417422466,-0.06924481530543054,-0.07217006154269752,-0.2521081587107674
65,0.239591487075041,0.2920736708619481,-0.2393298743830168,-0.07225794923611788,-0.06850526103319671,-0.255139019597494
66,0.23636648284235856,0.29291144979508343,-0.23840298163024398,-0.0752596727989801,-0.06482964274884064,-0.2581295910753609
67,0.23310415360198808,0.2937029746147589,-0.23743844228301672,-0.07824951198706952,-0.06114378711236546,-0.2610794008984637
68,0.22980501451353472,0.29444812033002987,-0.23643640865327922,-0.08122699467011905,-0.05744827616310391,-0.2639879832576363
69,0.2264695865493055,0.2951467692737498,-0.23539703897375755,-0.08419165066909705,-0.053743693465074675,-0.2668548788540067
70,0.2230983964120414,0.2957988111211515,-0.23432049737297286,-0.0871430118304538,-0.0500306240148307,-0.2696796349715262
71,0.21969197645174515,0.2964041429072685,-0.23320695384932366,-0.09008061210004864,-0.04630965414908139,-0.27246180554845817
72,0.216250864581617,0.29696266904319474,-0.23205658424424083,-0.09300398759674529,-0.04258137145210334,-0.2752009512478166
73,0.21277560419311187,0.2974743013311785,-0.2308695702144206,-0.09591267668566404,-0.03884636466295408,-0.2778966395267423
74,0.20926674407013163,0.29793895897855055,-0.2296460992031385,-0.09880622005107911,-0.03510522358250326,-0.2805484447048068
75,0.20572483830236554,0.298356568610482,-0.22838636441065022,-0.10168416076895007,-0.03135853898029604,-0.28315594803123156
76,0.20215044619779363,0.2987270642815707,-0.2270905647636828,-0.10454604437907532,-0.02760690250126417,-0.28571873775101436
77,0.19854413219436473,0.2990503874862554,-0.2257589048840218,-0.10739141895685703,-0.023850906572297926,-0.2882364091699496
78,0.19490646577086576,0.299326487168054,-0.22439159505619938,-0.11021983518466462,-0.020091144308695436,-0.2907085647185344
79,0.19123802135699414,0.29955531972762595,-0.22298885119428768,-0.1130308464227877,-0.016328209420502733,-0.2931348140147496
80,0.18753937824264877,0.2997368490296575,-0.22155089480780366,-0.11582400877996547,-0.012562696118759924,-0.29551477392570524
81,0.18381112048645348,0.2998710464085675,-0.22007795296673008,-0.11859888118348229,-0.008795199021668504,-0.2978480686281421
82,0.18005383682352724,0.2999578906730341,-0.2185702582656584,-0.12135502544881847,-0.005026313060694381,-0.3001343296677783
83,0.1762681205725163,0.2999973681093413,-0.21702804878705986,-0.12409200634884412,-0.0012566333866212377,-0.30237319601749235
84,0.17245456954190203,0.2999894724835442,-0.21545156806368881,-0.1268093916825472,0.0025132447244311427,-0.304564314134334
85,0.16861378593560036,0.29993420504245366,-0.21384106504012668,-0.12950675234328252,0.006282725965007078,-0.3067073380153522
86,0.16474637625786637,0.2998315745134393,-0.21219679403347047,-0.13218366238653292,0.01005121509032147,-0.30880192925223365
87,0.16085295121752072,0.29968159710305137,-0.21051901469317308,-0.13483969909717086,0.013818117012255717,-0.3108477570847406
88,0.15693412563151127,0.29948429649446157,-0.2088079919600418,-0.13747444305620996,0.0175828368933289,-0.3128444984529423
89,0.15299051832782648,0.2992397038437233,-0.207063996024401,-0.1400874782070362,0.021344780240630048,-0.31479183804822986
90,0.14902275204777543,0.2989478577748513,-0.20528730228342604,-0.1426783919211079,0.02510335299969466,-0.31668946836310685
91,0.1450314533476494,0.29860880437372317,-0.20347819129765451,-0.14524677506311495,0.028857961648313325,-0.3185370897397485
92,0.14101725249978192,0.29822259718080135,-0.20163694874668317,-0.1477922220555854,0.03260801329025548,-0.32033441041732114
93,0.1369807833930208,0.2977892971826787,-0.19976386538405497,-0.1503143309429316,0.036352915748895154,-0.3220811465780546
94,0.1329226834326304,0.2973089728024478,-0.19785923699134644,-0.15281270345492287,0.0400920776607217,-0.3237770223920603
95,0.12884359343963725,0.29678169988889647,-0.19592336433145996,-0.15528694506957758,0.04382490856872353,-0.325421770060888
96,0.12474415754963776,0.2962075617045301,-0.19395655310112983,-0.1577366650754624,0.04755081901562775,-0.3270151298598142
97,0.12062502311108095,0.2955866489124236,-0.19195911388264933,-0.16016147663339042,0.051269220636982964,-0.3285568501788559
98,0.11648684058304533,0.2949190595619046,-0.1899313620948262,-0.1625609968375072,0.05497952625406794,-0.33004668756250255
99,0.1123302634325233,0.2942048990730706,-0.18787361794317403,-0.1649348467757565,0.0586811499666145,-0.3314844067481605
100,0.1081559480312316,0.2934442802201417,-0.18578620636934862,-0.16728265158971448,0.06237350724532773,-0.3328697807033037
101,0.1039645535519622,0.2926373231136519,-0.1836694569998354,-0.1696040405337845,0.06605601502419044,-0.334202590661325
102,0.09975674186449165,0.29178415518148304,-0.181523704093898,-0.17189864703374183,0.06972809179253518,-0.33548262615608154
103,0.0955331774310638,0.29088491114874176,-0.17934928649079465,-0.17416610874462018,0.07338915768687222,-0.33670968505513005
104,0.09129452720146394,0.2899397330164853,-0.17714654755627152,-0.17640606760793018,0.07703863458245626,-0.33788357359164584
105,0.08704146050769915,0.2889487700392975,-0.17491583512834133,-0.17861816990820087,0.08067594618457967,-0.3390041063950209
106,0.08277464895830366,0.28791217870172,-0.17265750146235576,-0.18080206632883547,0.0843005181195753,-0.34007110652013584
107,0.0784947663322834,0.2868301226935417,-0.17037190317537995,-0.18295741200727278,0.08791177802551724,-0.341084405475302
108,0.07420248847271907,0.2857027728839498,-0.168059401189879,-0.18508386658944453,0.0915091556426033,-0.3420438432488677
109,0.06989849318004245,0.284530307294548,-0.16572036067672385,-0.18718109428352148,0.09509208290320546,-0.34294926833448636
110,0.06558346010500357,0.28331291107124434,-0.1633551509975264,-0.18924876391293907,0.09865999402157495,-0.34380053775504105
111,0.061258070641346606,0.28205077645501503,-0.16096414564631345,-0.19128654896869354,0.1022123255831855,-0.34459751708522185
112,0.05692300781820922,0.28074410275154726,-0.15854772219054739,-0.19329412766090182,0.10574851663370359,-0.3453400804727538
113,0.05257895619226497,0.27939309629976605,-0.15610626221150392,-0.19527118296961582,0.10926800876756941,-0.3460281106582699
114,0.04822660173962329,0.2779979704392517,-0.1536401512440161,-0.19721740269488355,0.112770246216176,-0.3466614989938279
115,0.04386663174750649,0.27655894547655013,-0.15114977871559374,-0.19913247950604906,0.1162546759356309,-0.34724014546006726
116,0.039499734705718555,0.2750762486503849,-0.1486355378849283,-0.20101611099028366,0.1197207476940886,-0.34776395868200294
117,0.03512660019792522,0.27355011409577273,-0.1460978257797931,-0.20286799970034017,0.12316791415863836,-0.34823285594345504
118,0.030747918792760082,0.27198078280705135,-0.14353704313434748,-0.2046878532015236,0.1265956309817348,-0.34864676320011034
119,0.02636438193477646,0.27036850259982337,-0.14095359432585672,-0.20647538411786964,0.13000335688715614,-0.34900561509121486
120,0.021976681835259654,0.2687135280718238,-0.13834788731083603,-0.20823031017752486,0.13339055375547829,-0.349309354949895
121,0.01758551136291936,0.26701612056271573,-0.13572033356062935,-0.20995235425732073,0.13675668670904995,-0.3495579348121061
122,0.013191563934477065,0.2652765481128217,-0.13307134799643344,-0.21164124442653448,0.14010122419645657,-0.3497513154242062
123,0.008795533405168135,0.2634950854207973,-0.130401348923777,-0.21329671398983005,0.14342363807645764,-0.34988946624915496
124,0.004398113959173394,0.26167201380025307,-0.12771075796646497,-0.21491850152937275,0.1467234037013869,-0.34997236547133564
125,2.143131898507868e-17,0.2598076211353316,-0.12500000000000008,-0.21650635094610962,0.14999999999999994,-0.35
126,-0.004398113959173428,0.2579022018352473,-0.12226950308448913,-0.2180600115002109,0.15325290955975793,-0.34997236547133564
127,-0.008795533405168091,0.2559560567877961,-0.11951969839704808,-0.21957923785066444,0.15648161870853233,-0.34988946624915496
128,-0.013191563934477102,0.2539694933118413,-0.11675102016371385,-0.22106379009401808,0.1596856175957202,-0.3497513154242062
129,-0.01758551136291939,0.25194282510878485,-0.11396390559087499,-0.22251343380226313,0.16286440027275528,-0.3495579348121061
130,-0.02197668183525969,0.24987637221302986,-0.11115879479623184,-0.22392794005985323,0.1660174647730032,-0.349309354949895
131,-0.026364381934776495,0.24777046094144356,-0.10833613073929674,-0.22530708549985284,0.16914431319102802,-0.34900561509121486
132,-0.030747918792760117,0.24562542384182834,-0.10549635915144571,-0.22665065233920942,0.17224445176121692,-0.34864676320011034
133,-0.035126600197925247,0.24344159964040823,-0.10263992846553201,-0.22795842841314395,0.1753173909357517,-0.34823285594345504
134,-0.03949973470571859,0.2412193331883404,-0.09976728974507387,-0.22923020720865406,0.1783626454619139,-0.34776395868200294
135,-0.043866631747506525,0.2389589754072589,-0.09687889661302579,-0.2304657878971251,0.18137973445871244,-0.3472401454600672
136,-0.048226601739623315,0.23666088323386023,-0.09397520518014672,-0.23166497536604302,0.18436818149281933,-0.3466614989938279
137,-0.052578956192265,0.23432541956353894,-0.09105667397297455,-0.23282758024980507,0.18732751465380476,-0.3460281106582699
138,-0.05692300781820925,0.2319529531930822,-0.08812376386141961,-0.2339534189596227,0.19025726662865683,-0.3453400804727538
139,-0.06125807064134665,0.22954385876243227,-0.08517693798598786,-0.23504231371251258,0.1931569747755761,-0.34459751708522185
140,-0.06558346010500361,0.22709851669552691,-0.08221666168464585,-0.23609409255937025,0.19602618119703163,-0.34380053775504105
141,-0.06989849318004249,0.22461731314022584,-0.07924340241933794,-0.2371085894121233,0.19886443281206856,-0.34294926833448636
142,-0.07420248847271911,0.22210063990733347,-0.07625762970216945,-0.23808564406995816,0.20167128142785473,-0.3420438432488677
143,-0.07849476633228343,0.21954889440872735,-0.07325981502126441,-0.23902510224461807,0.2044462838104559,-0.341084405475302
144,-0.08277464895830362,0.2169624795946026,-0.0702504317663128,-0.23992681558476667,0.20718900175482688,-0.3400711065201359
145,-0.08704146050769919,0.21434180388984098,-0.06722995515381644,-0.24079064169941453,0.20989900215400967,-0.3390041063950209
146,-0.0912945272014639,0.21168728112951624,-0.06419886215204693,-0.2416164441804044,0.21257585706752577,-0.33788357359164584
147,-0.09553317743106383,0.20899933049354424,-0.06115763140572679,-0.24240409262395152,0.21521914378895354,-0.33670968505513005
148,-0.09975674186449161,0.2062783764404902,-0.058106743160446034,-0.24315346265123589,0.21782844491267758,-0.33548262615608154
149,-0.10396455355196224,0.20352484864054143,-0.055046679186825404,-0.24386443592804327,0.22040334839980244,-0.334202590661325
150,-0.10815594803123164,0.2007391819076574,-0.05197792270443983,-0.24453690018345142,0.2229434476432183,-0.3328697807033037
151,-0.11233026343252334,0.19792181613090784,-0.04890095830551213,-0.24517074922755888,0.2254483415318088,-0.3314844067481605
152,-0.11648684058304537,0.19507319620500865,-0.04581627187838999,-0.24576588296825386,0.22791763451379138,-0.33004668756250255
153,-0.12062502311108096,0.19219377196006843,-0.04272435053081918,-0.24632220742701963,0.23035093665917925,-0.3285568501788559
154,-0.12474415754963777,0.18928399809055485,-0.039625682513023175,-0.2468396347537751,0.2327478637213558,-0.3270151298598142
155,-0.12884359343963728,0.18634433408349316,-0.03652075714060287,-0.24731808324074708,0.23510803719775192,-0.32542177006088796
156,-0.13292268343263042,0.1833752441459075,-0.033410064717268026,-0.2477574773353732,0.2374310843896157,-0.3237770223920603
157,-0.13698078339302083,0.18037719713151792,-0.030294096457412673,-0.24815774765223225,0.2397166384608659,-0.3220811465780546
158,-0.14101725249978195,0.17735066646670253,-0.02717334440854628,-0.24851883098400115,0.24196433849601975,-0.32033441041732114
159,-0.14503145334764944,0.17429613007573797,-0.024048301373594483,-0.24884067031143597,0.24417382955718536,-0.3185370897397485
