ID,x1,y1,z1,x2,y2,z2,x3,y3,z3
0,0.1039411872625351,-0.10564757883548737,0.10202115029096603,0.11061771959066391,-0.2028873860836029,0.10083846002817154,0.11405958980321884,-0.32289746403694153,0.08753164112567902
1,0.10394684970378876,-0.10565754771232605,0.10200779885053635,0.11062873154878616,-0.20289233326911926,0.10082462430000305,0.11406409740447998,-0.32290133833885193,0.08752815425395966
2,0.10394084453582764,-0.105653315782547,0.10202110558748245,0.11061333119869232,-0.2028891146183014,0.10083001106977463,0.11406224966049194,-0.322899729013443,0.08752907067537308
3,0.10393894463777542,-0.10565413534641266,0.10201575607061386,0.11062268167734146,-0.2029009908437729,0.10083427280187607,0.11406120657920837,-0.32288873195648193,0.08753000944852829
4,0.10394112765789032,-0.10567013174295425,0.10201214998960495,0.1106136217713356,-0.20289255678653717,0.10084038227796555,0.11406132578849792,-0.32289204001426697,0.08752554655075073
5,0.10394398123025894,-0.10565489530563354,0.10202669352293015,0.11062122881412506,-0.20288880169391632,0.1008237898349762,0.11405931413173676,-0.32290613651275635,0.08752935379743576
6,0.10394469648599625,-0.10564921051263809,0.10203064978122711,0.11062474548816681,-0.20290003716945648,0.10082876682281494,0.11405926942825317,-0.32289907336235046,0.08752641826868057
7,0.10395725816488266,-0.10574965178966522,0.10201258957386017,0.11064409464597702,-0.2029205560684204,0.10083916038274765,0.11404383927583694,-0.3228829503059387,0.08754201233386993
8,0.10430525243282318,-0.10580575466156006,0.10289968550205231,0.11047931015491486,-0.2027619332075119,0.10162229835987091,0.11352929472923279,-0.3227304518222809,0.08739518374204636
9,0.10393497347831726,-0.10576502233743668,0.10480721294879913,0.10918642580509186,-0.20263166725635529,0.10442212224006653,0.11262787133455276,-0.32232391834259033,0.0876515731215477
10,0.1026381403207779,-0.10605207085609436,0.10719017684459686,0.106818288564682,-0.20258425176143646,0.108086958527565,0.11152705550193787,-0.3219306468963623,0.0884898230433464
11,0.10139584541320801,-0.10655709356069565,0.10860348492860794,0.10411541908979416,-0.2029627114534378,0.11076733469963074,0.10999094694852829,-0.3211999237537384,0.08980264514684677
12,0.10058727860450745,-0.10643843561410904,0.10922779142856598,0.10184233635663986,-0.20300617814064026,0.1124650090932846,0.10804194957017899,-0.3213585317134857,0.09101001173257828
13,0.09981686621904373,-0.10658388584852219,0.10951849818229675,0.09996551275253296,-0.2029578685760498,0.11323375999927521,0.10654527693986893,-0.32082223892211914,0.09158701449632645
14,0.0991198718547821,-0.10662864148616791,0.10952602326869965,0.09850789606571198,-0.20290064811706543,0.11325789242982864,0.10513948649168015,-0.32044926285743713,0.09184148162603378
15,0.09873082488775253,-0.10656408965587616,0.1093575581908226,0.09732317924499512,-0.2030506134033203,0.1128057911992073,0.10373188555240631,-0.3206692934036255,0.09189557284116745
16,0.09845899045467377,-0.1065749078989029,0.10913757979869843,0.09661445021629333,-0.20290786027908325,0.112474724650383,0.10255472362041473,-0.32093703746795654,0.09195724129676819
17,0.09845244139432907,-0.10653690248727798,0.10901160538196564,0.09628066420555115,-0.20294702053070068,0.11210908740758896,0.10130495578050613,-0.3210121989250183,0.09198078513145447
18,0.09852585941553116,-0.10657607018947601,0.10896261036396027,0.096086286008358,-0.20296357572078705,0.11213309317827225,0.10008636116981506,-0.32097604870796204,0.09200675785541534
19,0.09834247827529907,-0.1066710576415062,0.10921425372362137,0.0957873985171318,-0.20298057794570923,0.11242589354515076,0.09887929260730743,-0.32092195749282837,0.09204301238059998
20,0.09810096025466919,-0.1066678985953331,0.10927703231573105,0.09517809003591537,-0.20300094783306122,0.11267954111099243,0.09758617728948593,-0.3208434283733368,0.09208501130342484
21,0.09785754233598709,-0.10651672631502151,0.10950340330600739,0.09430454671382904,-0.20298507809638977,0.11275438964366913,0.09630875289440155,-0.320764422416687,0.09210065752267838
22,0.09748709946870804,-0.10654155164957047,0.10956119745969772,0.09335474669933319,-0.20296913385391235,0.11264222115278244,0.0951065644621849,-0.3207278251647949,0.09202441573143005
23,0.09714341908693314,-0.10650520771741867,0.10950779169797897,0.0924915075302124,-0.20291627943515778,0.11245983093976974,0.09397024661302567,-0.320723295211792,0.09188787639141083
24,0.0968499556183815,-0.10643679648637772,0.10945791006088257,0.09175973385572433,-0.20291702449321747,0.11231516301631927,0.09294282644987106,-0.3206622004508972,0.09178228676319122
25,0.09665307402610779,-0.10640699416399002,0.10945599526166916,0.09122559428215027,-0.2028941959142685,0.11225419491529465,0.09202143549919128,-0.32059258222579956,0.0916391983628273
26,0.09656891226768494,-0.10644415020942688,0.10953933000564575,0.09087931364774704,-0.20285937190055847,0.11220236867666245,0.09122835099697113,-0.320563405752182,0.09143601357936859
27,0.0964684784412384,-0.10650064051151276,0.1095157116651535,0.09059541672468185,-0.20290662348270416,0.1121402308344841,0.09059539437294006,-0.3205231726169586,0.0912158414721489
28,0.0963265597820282,-0.10650477558374405,0.10945376753807068,0.09032499045133591,-0.20283029973506927,0.11196491867303848,0.09008972346782684,-0.32045766711235046,0.09095407277345657
29,0.09622577577829361,-0.10647379606962204,0.10937844961881638,0.08996349573135376,-0.20282454788684845,0.11178462952375412,0.08960361778736115,-0.32047930359840393,0.09067878872156143
30,0.09611882269382477,-0.10645709186792374,0.1093357726931572,0.08966095745563507,-0.20286820828914642,0.11163122951984406,0.08930741995573044,-0.32040223479270935,0.09039240330457687
31,0.09603920578956604,-0.10642664134502411,0.10930024087429047,0.08943592011928558,-0.20286747813224792,0.1114659234881401,0.08912602812051773,-0.3203577995300293,0.09014809876680374
32,0.0960041731595993,-0.10643382370471954,0.10925479233264923,0.08930975943803787,-0.2028517872095108,0.11135799437761307,0.08902818709611893,-0.320339560508728,0.08987414836883545
33,0.09600640088319778,-0.10642144829034805,0.10923964530229568,0.0893581360578537,-0.2028501331806183,0.11125267297029495,0.08905082195997238,-0.32032620906829834,0.08961482346057892
34,0.09603732079267502,-0.10639063268899918,0.1091800183057785,0.08941253274679184,-0.20284362137317657,0.11109952628612518,0.08917319029569626,-0.3203049600124359,0.08939645439386368
35,0.09603552520275116,-0.10637131333351135,0.10910119116306305,0.08941676467657089,-0.20282994210720062,0.11097662150859833,0.0893939658999443,-0.32030412554740906,0.08919356018304825
36,0.09603091329336166,-0.10635127872228622,0.10908108949661255,0.08944422751665115,-0.20284555852413177,0.11085684597492218,0.08964449167251587,-0.32025668025016785,0.08906067907810211
37,0.09606637805700302,-0.10636957734823227,0.10904228687286377,0.08955689519643784,-0.20282921195030212,0.11076346039772034,0.09001966565847397,-0.3202625811100006,0.08889812231063843
38,0.09611319750547409,-0.10635536909103394,0.10902001708745956,0.08975926041603088,-0.20284050703048706,0.11069836467504501,0.09040520340204239,-0.3202795684337616,0.08881276100873947
39,0.09619839489459991,-0.10642106086015701,0.10898209363222122,0.08995474129915237,-0.202867791056633,0.11063177138566971,0.0908387303352356,-0.32030943036079407,0.08875998854637146
40,0.09625802934169769,-0.10642784088850021,0.10896123945713043,0.09015799313783646,-0.20284464955329895,0.11061456054449081,0.09129898250102997,-0.3203151524066925,0.08875224739313126
41,0.09630533307790756,-0.10645567625761032,0.10893427580595016,0.09035100042819977,-0.2029086947441101,0.11057420819997787,0.09173165261745453,-0.32035866379737854,0.08874521404504776
42,0.09634420275688171,-0.10647068172693253,0.108925960958004,0.09053654223680496,-0.20291751623153687,0.11056786775588989,0.09216681122779846,-0.3203536868095398,0.08879325538873672
43,0.09637913852930069,-0.1064511314034462,0.10889458656311035,0.09065865725278854,-0.20292167365550995,0.1105680912733078,0.09255044162273407,-0.32041260600090027,0.08887527883052826
44,0.09644465148448944,-0.10647064447402954,0.10888055711984634,0.09083623439073563,-0.20291654765605927,0.11059305816888809,0.09287833422422409,-0.32041221857070923,0.0889698937535286
45,0.09648042917251587,-0.10643156617879868,0.1088833436369896,0.09095248579978943,-0.2029324322938919,0.11062046140432358,0.09320033341646194,-0.3204558789730072,0.08908604085445404
46,0.09650755673646927,-0.10645498335361481,0.10886407643556595,0.09109953790903091,-0.20290999114513397,0.11064471304416656,0.09345058351755142,-0.3204960525035858,0.08919425308704376
47,0.09652476757764816,-0.10646356642246246,0.10887539386749268,0.09120509028434753,-0.20291168987751007,0.11068519204854965,0.09363244473934174,-0.3205249607563019,0.08932536095380783
48,0.0965920090675354,-0.10642067342996597,0.1087522804737091,0.09124729782342911,-0.20294137299060822,0.11044682562351227,0.0937485620379448,-0.3205777704715729,0.0894303172826767
49,0.09672964364290237,-0.10646694153547287,0.10838871449232101,0.09131822735071182,-0.20293019711971283,0.10971485078334808,0.09379737079143524,-0.3206818401813507,0.08941438049077988
50,0.0968480259180069,-0.10650143027305603,0.10770487040281296,0.09136302024126053,-0.2029346078634262,0.10839666426181793,0.09379377961158752,-0.32079818844795227,0.08908846974372864
51,0.09698643535375595,-0.10648665577173233,0.10718075186014175,0.09146375954151154,-0.20289993286132812,0.10729576647281647,0.09370793402194977,-0.32075735926628113,0.08849798142910004
52,0.09698273986577988,-0.10637522488832474,0.1070258840918541,0.09146387875080109,-0.20288345217704773,0.10668785125017166,0.09372168034315109,-0.32064348459243774,0.08794592320919037
53,0.09674602746963501,-0.10639002919197083,0.10699529945850372,0.09122346341609955,-0.20289631187915802,0.10657763481140137,0.09368076175451279,-0.32059532403945923,0.0875176265835762
54,0.09664595872163773,-0.10626891255378723,0.1070183739066124,0.09087271243333817,-0.20284797251224518,0.10669643431901932,0.09354031085968018,-0.3205365836620331,0.08707541227340698
55,0.09646930545568466,-0.1062016710639,0.10710031539201736,0.09051638096570969,-0.20281699299812317,0.10672871768474579,0.09336411207914352,-0.32038187980651855,0.08649954199790955
56,0.09639597684144974,-0.10628868639469147,0.10697396099567413,0.09028826653957367,-0.20279495418071747,0.10647810250520706,0.09316905587911606,-0.3203105330467224,0.08588239550590515
57,0.09640344232320786,-0.10634082555770874,0.10675554722547531,0.09029139578342438,-0.20282931625843048,0.10592690110206604,0.09288071095943451,-0.32034969329833984,0.08521736413240433
58,0.0963522419333458,-0.1062067374587059,0.10662035644054413,0.0902649313211441,-0.20276224613189697,0.10535818338394165,0.09257063269615173,-0.3202703595161438,0.08457084000110626
59,0.09627068787813187,-0.10611771792173386,0.10631727427244186,0.08998135477304459,-0.20273156464099884,0.10482998192310333,0.09230465441942215,-0.3202612102031708,0.08388219773769379
60,0.09597019106149673,-0.10608949512243271,0.10615332424640656,0.08938423544168472,-0.20268869400024414,0.10439152270555496,0.09201859682798386,-0.32033973932266235,0.08319612592458725
61,0.09570200741291046,-0.10607808083295822,0.10610479861497879,0.08885879069566727,-0.20265263319015503,0.10407601296901703,0.09159278124570847,-0.32027339935302734,0.08259236067533493
62,0.09567003697156906,-0.10611355304718018,0.10606999695301056,0.08858684450387955,-0.20270565152168274,0.10397186875343323,0.09108313918113708,-0.32032880187034607,0.08205431699752808
63,0.09571321308612823,-0.1060989573597908,0.10605451464653015,0.08865746110677719,-0.20274052023887634,0.10391359776258469,0.09065567702054977,-0.3203699588775635,0.0815500020980835
64,0.09574290364980698,-0.1061132475733757,0.10602419078350067,0.08883032947778702,-0.20265448093414307,0.10381350666284561,0.09021108597517014,-0.3206242322921753,0.08116656541824341
65,0.09584029018878937,-0.10615844279527664,0.1060359850525856,0.08898989111185074,-0.20266681909561157,0.10372650623321533,0.0900312289595604,-0.3209342360496521,0.08077031373977661
66,0.09595054388046265,-0.10610059648752213,0.10590491443872452,0.08960634469985962,-0.20276452600955963,0.10341906547546387,0.08988569676876068,-0.3210725486278534,0.08035493642091751
67,0.09617547690868378,-0.10607589781284332,0.1057526245713234,0.09038940817117691,-0.20272472500801086,0.10291393846273422,0.08944003283977509,-0.321274995803833,0.07972735911607742
68,0.09647221863269806,-0.10607053339481354,0.1053697019815445,0.09086856245994568,-0.2027546912431717,0.10223428905010223,0.08861899375915527,-0.32135650515556335,0.07949148118495941
69,0.09650494903326035,-0.10599619895219803,0.10512641817331314,0.09079655259847641,-0.20263031125068665,0.1016610860824585,0.08773253858089447,-0.3213847875595093,0.07923802733421326
70,0.09637743979692459,-0.1060255914926529,0.10507544130086899,0.09039469063282013,-0.20263153314590454,0.10133825987577438,0.08668524026870728,-0.3213215172290802,0.07911296933889389
71,0.0962546169757843,-0.10600120574235916,0.10500722378492355,0.08991552144289017,-0.20257996022701263,0.10132718086242676,0.08526579290628433,-0.3212597966194153,0.07928305119276047
72,0.09608694911003113,-0.10600708425045013,0.1051211878657341,0.08941078186035156,-0.20255500078201294,0.10153403133153915,0.08378835022449493,-0.3211408257484436,0.07953540980815887
73,0.09585300832986832,-0.10601278394460678,0.10520657151937485,0.08873037993907928,-0.2027065008878708,0.10174807161092758,0.0823352262377739,-0.3210546672344208,0.07988058030605316
74,0.09550201892852783,-0.10607796907424927,0.10515736043453217,0.08792628347873688,-0.20267172157764435,0.1016010269522667,0.08092407137155533,-0.3209778964519501,0.08027368038892746
75,0.09522981941699982,-0.10615881532430649,0.1049739345908165,0.08729778975248337,-0.2026413530111313,0.10113881528377533,0.07946226000785828,-0.32103797793388367,0.08052898943424225
76,0.09502579271793365,-0.10613732039928436,0.10473597794771194,0.08686167746782303,-0.20259663462638855,0.10065927356481552,0.07797154039144516,-0.3210403323173523,0.08088013529777527
77,0.09484288841485977,-0.105989970266819,0.10437808185815811,0.0865078791975975,-0.20248346030712128,0.10009092092514038,0.07654722034931183,-0.3210219442844391,0.08117896318435669
78,0.09497925639152527,-0.1059509813785553,0.10403457283973694,0.086411252617836,-0.20246858894824982,0.09932500123977661,0.07511305063962936,-0.3209068179130554,0.0813821479678154
79,0.0951424092054367,-0.10596577078104019,0.10369328409433365,0.08674789220094681,-0.2021365612745285,0.09825636446475983,0.07353196293115616,-0.32070910930633545,0.08151689171791077
80,0.0953158363699913,-0.10594053566455841,0.1034088209271431,0.08701561391353607,-0.20210672914981842,0.09769153594970703,0.0719616711139679,-0.32058462500572205,0.08177222311496735
81,0.09539277851581573,-0.105921670794487,0.10319840162992477,0.08698920905590057,-0.2021084427833557,0.09742743521928787,0.07057216763496399,-0.32045915722846985,0.08205834031105042
82,0.0952301099896431,-0.10591703653335571,0.10318181663751602,0.086644247174263,-0.20199273526668549,0.0973358005285263,0.06914649158716202,-0.32021254301071167,0.0823453813791275
83,0.09512364119291306,-0.10585694760084152,0.10312377661466599,0.08639616519212723,-0.2019941210746765,0.09719383716583252,0.06776319444179535,-0.31981784105300903,0.08274363726377487
84,0.09522291272878647,-0.10578026622533798,0.10301852971315384,0.08652320504188538,-0.20193733274936676,0.09692496806383133,0.06619998812675476,-0.3193216621875763,0.08311816304922104
85,0.09542999416589737,-0.10569599270820618,0.10283354669809341,0.08665373176336288,-0.20188914239406586,0.09668398648500443,0.06450066715478897,-0.31887635588645935,0.08353452384471893
86,0.09539055079221725,-0.10570754110813141,0.10268709063529968,0.08638998866081238,-0.20186392962932587,0.0963873341679573,0.06298805773258209,-0.31861940026283264,0.08392929285764694
87,0.09515450894832611,-0.10577975958585739,0.10264121741056442,0.08599153161048889,-0.20186732709407806,0.09615547209978104,0.06144598126411438,-0.3185283839702606,0.08441019058227539
88,0.09505962580442429,-0.10572963953018188,0.10252400487661362,0.08556472510099411,-0.2017226666212082,0.09599822759628296,0.05978140980005264,-0.31792953610420227,0.08475404977798462
89,0.09497382491827011,-0.10573989897966385,0.10239271819591522,0.08519568294286728,-0.20157060027122498,0.09582856297492981,0.05828425660729408,-0.31641969084739685,0.0847119390964508
90,0.09491720795631409,-0.10569141060113907,0.10240218788385391,0.08488006144762039,-0.20146240293979645,0.0956062600016594,0.056595705449581146,-0.3157220184803009,0.08510612696409225
91,0.09484124183654785,-0.1056598648428917,0.10225195437669754,0.0845356211066246,-0.2014349102973938,0.09557636827230453,0.055038511753082275,-0.3152421712875366,0.0854954943060875
92,0.09462360292673111,-0.10564930737018585,0.10223645716905594,0.08406966179609299,-0.20136259496212006,0.09558191895484924,0.053630948066711426,-0.31474149227142334,0.0859396755695343
93,0.09451212733983994,-0.10561839491128922,0.10224601626396179,0.08365068584680557,-0.20122979581356049,0.09553438425064087,0.05220520496368408,-0.31416213512420654,0.08629348874092102
94,0.09442750364542007,-0.1054791510105133,0.10201964527368546,0.08320873975753784,-0.2010384202003479,0.09532060474157333,0.05089070275425911,-0.31348082423210144,0.0867067277431488
95,0.09422144293785095,-0.10536877065896988,0.10182726383209229,0.08282299339771271,-0.20096027851104736,0.0948265865445137,0.04973461106419563,-0.3129366934299469,0.08692487329244614
96,0.09395821392536163,-0.10526532679796219,0.10150163620710373,0.08212032914161682,-0.20061509311199188,0.09424358606338501,0.04821610078215599,-0.31206756830215454,0.08709986507892609
97,0.09366525709629059,-0.10517248511314392,0.10119785368442535,0.08128277957439423,-0.2004101276397705,0.09349130839109421,0.047285325825214386,-0.3114308714866638,0.08721079677343369
98,0.09335082024335861,-0.10519170761108398,0.1007741242647171,0.08077283948659897,-0.2002400904893875,0.09275177866220474,0.04658361151814461,-0.3107576072216034,0.08726324141025543
99,0.093259796500206,-0.10513925552368164,0.10029496997594833,0.080874502658844,-0.19999505579471588,0.09206456691026688,0.04601505026221275,-0.30993184447288513,0.08750443160533905
100,0.0935431569814682,-0.10511642694473267,0.1000022292137146,0.0813126489520073,-0.19983749091625214,0.09148919582366943,0.045590996742248535,-0.3090856075286865,0.08768326044082642
101,0.09389878809452057,-0.10507500171661377,0.09971285611391068,0.08209365606307983,-0.1997135728597641,0.09106133133172989,0.04545403644442558,-0.3085428774356842,0.08804924041032791
102,0.0941743478178978,-0.10502070933580399,0.09941527992486954,0.08274093270301819,-0.19974297285079956,0.09089018404483795,0.045241475105285645,-0.3080160915851593,0.08828306198120117
103,0.09426447749137878,-0.1049204096198082,0.09935194998979568,0.08314955979585648,-0.19951221346855164,0.09082946181297302,0.04506107419729233,-0.30751094222068787,0.08857786655426025
104,0.09424369037151337,-0.10485896468162537,0.09930431097745895,0.08336933702230453,-0.1992514431476593,0.09083610773086548,0.04463767632842064,-0.30674219131469727,0.08903977274894714
105,0.09428504854440689,-0.10485688596963882,0.09914805740118027,0.083307184278965,-0.19908475875854492,0.09085971862077713,0.0440291129052639,-0.3061780631542206,0.08939378708600998
106,0.09419286251068115,-0.10482902824878693,0.09914836287498474,0.08294729888439178,-0.1988188475370407,0.09087001532316208,0.0433715283870697,-0.30555257201194763,0.08970404416322708
