ID,u1,u2,u3,u4,u5,u6
0,200.35296406339205,207.31435135434967,189.34921251703813,212.9273438156178,199.04361978997977,195.0013750507389
1,201.18462371403962,206.5348905476699,189.64378150497703,212.1837863480712,199.11584105227354,194.95348493989508
2,202.01798807477263,205.75844267461227,189.9384234612074,211.44166148344473,199.18654882344475,194.90414081011886
3,202.85454368060044,204.98788369355833,190.23317339004015,210.7023779174151,199.25433371595594,194.8520016181219
4,203.6955488768814,204.22594247987843,190.52802702904702,209.9673168910873,199.31789660111724,194.79584560548255
5,204.54204445109838,203.47520340133843,190.82294317104007,209.2378307270963,199.37604501338205,194.73456599881928
6,205.39486407883285,202.738108889599,191.11784594073993,208.5152414176489,199.42768960267043,194.66716677302202
7,206.25464458393606,202.01696200780685,191.41262702613312,207.8008392645059,199.4718406347201,194.59275847754114
8,207.12183601289897,201.31392901427796,191.70714786451833,207.09588157090366,199.50760453946543,194.51055412573453
9,207.99671152341963,200.6310419222733,192.00124178324126,206.4015913854166,199.5341805074438,194.4198651472726
10,208.87937708716862,199.97020105586665,192.2947160951189,205.71915629775913,199.55085713423003,194.32009740360073
11,209.76978100675245,199.33317760190403,192.58735414855215,205.04972728652788,199.55700911289824,194.2107472664602
12,210.66772324687486,198.72161615805607,192.87891733232783,204.394417618884,199.55209397451173,194.0913977594665
13,211.5728645796961,198.13703727696213,193.16914703510938,203.75430180217558,199.5356488766403,193.96171476274577
14,212.48473554439005,197.5808400064663,193.4577665596164,203.1304145874999,199.50728743990544,193.8214432806289
15,213.40274522089942,197.0543044259463,193.7444829914933,202.52375002520625,199.46669663255332,193.67040377240386
16,214.32618981788886,196.55859417873356,194.0289890228667,201.9352605723381,199.41363370305538,193.50848854612542
17,215.25426107489557,196.09475900062634,194.31096473059185,201.36585625201616,199.3479231607366,193.3356582154832
18,216.18605447867878,195.66373724449446,194.5900793091878,200.81640386476073,199.26945380443172,193.15193821972719
19,217.12057729376625,195.26635840097634,194.8659927584617,200.2877262517547,199.17817579916897,192.9574154066516
20,218.05675640719903,194.90334561526825,195.1383575258218,199.7806016100464,199.0740978008816,192.75223467863594
21,218.9934459874745,194.5753182000055,195.4068201032796,199.2957628596925,198.95728412914713,192.53659570174477
22,219.92943495768657,194.28279414423616,195.67102257914064,198.83389706284095,198.82785198795443,192.31074967788456
23,220.86345428286478,194.02619261848633,195.93060414438438,198.39564489475407,198.6859687344983,192.07499618001887
24,221.79418407151033,193.80583647591828,196.18520255373286,197.98160016677195,198.53184919600196,191.82968005044137
25,222.72026049133103,193.62195474958014,196.4344555414085,197.59230940121518,198.3657530345673,191.57518836210653
26,223.64028249917337,193.47468514574808,196.67800219158056,197.22827145822865,198.18798216005263,191.31194744301837
27,224.55281838515282,193.36407653336047,196.91548426350064,196.88993721456455,197.99887819097836,191.04041996367695
28,225.4564121309824,193.29009142954425,197.146547471327,196.57770929430598,197.79881996346035,190.76110208758286
29,226.3495895824986,193.2526084812335,197.37084271863796,196.29194185153037,197.58822108817097,190.47452068479947
30,227.23086443638564,193.25142494288005,197.58802728763405,196.03294040491315,197.3675275553279,190.18123060857312
31,228.09874404109752,193.28625915025634,197.79776598302902,195.80096172427136,197.13721538771063,189.88181203501108
32,228.951735011978,193.35675299035034,197.9997322306301,195.5962137690473,196.8977883417047,189.57686786581752
33,229.78834866057866,193.4624743673526,198.19360913060666,195.41885567873237,196.64977565637375,189.26702119408736
34,230.60710623817448,193.6029196647357,198.3790904654483,195.26899781523102,196.39372985055908,188.95291283315765
35,231.40654399347804,193.77751620342542,198.5558816626114,195.14670185716454,196.13022456800718,188.63519890851745
36,232.185218044551,193.98562469606452,198.72370071185495,195.05198094611524,195.85985247052488,188.31454851277493
37,232.94170906491377,194.2265416973682,198.882279037265,194.98479988481026,195.5832231791622,187.99164142368267
38,233.67462678385337,194.49950205057218,199.0313623239682,194.94507538724602,195.30096126342286,187.66716588522098
39,234.38261430092862,194.8036813299725,199.17071129953422,194.9326763807523,195.0137042785028,187.34181645173868
40,235.064352214674,195.13819827955783,199.30010247006695,194.94742435999646,194.72210085055607,187.01629189515202
41,235.71856256550058,195.50211724773374,199.4193288109849,194.98909379292803,194.42680880998873,186.69129317520154
42,236.34401259279605,195.89445061813888,199.52820041249015,195.05741257866282,194.12849337278024,186.36752147276655
43,236.93951830622132,196.31416123655407,199.62654507972644,195.15206255730783,193.82782536983277,186.0456762862376
44,237.50394787120615,196.7601648339026,199.71420888762623,195.27268007172546,193.52547952434813,185.726453590947
45,238.03622480864226,197.23133244534316,199.79105669044634,195.41885658123834,193.2221327772325,185.4105440616568
46,238.53533100877416,197.72649282545532,199.8569725859929,195.59013932727424,192.91846266052877,185.09863135810514
47,239.0003095592886,198.244434859516,199.91186033453502,195.78603205095027,192.61514571887673,184.79139047361
48,239.43026738760108,198.7839099708695,199.9556437324072,196.00599576259862,192.31285597900086,184.48948614673117
49,239.82437771734112,199.34363452438836,199.9882669403011,196.24944956323054,192.01226346722603,184.19357133598987
50,240.18188233903484,199.92229222602757,200.00969476624564,196.5157715179422,191.71403277502077,183.9042857576464
51,240.50209369498583,200.5185365184699,200.0199129032767,196.80429958125922,191.4188216725682,183.62225448653555
52,240.7843967783538,201.130992972864,200.01892812179491,197.11433257442212,191.12727977036502,183.34808661995993
53,241.02825084643123,201.75826167665454,200.00676841661323,197.4451312146113,190.84004722884774,183.0823740046411
54,241.233190948118,202.3989196175043,199.98348310869267,197.79591919611266,190.55775351604714,182.82569002672878
55,241.39882926559375,203.05152306330854,199.94914290156734,198.16588432342263,190.28101621327005,182.57858846486758
56,241.52485627018837,203.71460993830166,199.90383989245848,198.55417969629377,190.01043986880913,182.34160240632195
57,241.61104169245053,204.38670219525574,199.84768753807703,198.95992494672043,189.74661489968014,182.1152432261588
58,241.65723530641367,205.0663081837714,199.78082057511543,199.382207527864,189.4901165413872,181.89999962948806
59,241.66336752806052,205.75192501466066,199.7033948954282,199.82008405491894,189.24150384571558,181.69633675676113
60,241.62944982798513,206.44204092042222,199.6155873759015,200.27258169791813,189.00131872655226,181.50469535212696
61,241.55557495825303,207.13513761180866,199.51759566301143,200.738699626479,188.7700850537342,181.32549099484652
62,241.4419169934592,207.82969263048574,199.40963791207156,201.21741050648922,188.54830779492443,181.15911339376458
63,241.28873118598412,208.52418169778412,199.29195248116895,201.70766204873266,188.33647220551583,181.00592574483974
64,241.0963536354477,209.2170810595429,199.1647975797895,202.20837860945548,188.13504306656256,180.86626415173217
65,240.86520077236102,209.90686982704563,199.0284508721319,202.71846284287216,187.94446397073915,180.74043710944915
66,240.59576865597617,210.59203231404808,198.88320903511067,203.23679740561164,187.76515665632772,180.6287250510487
67,240.28863208633408,211.2710603698988,198.72938727104795,203.76224671310365,187.59752038923233,180.5313799574009
68,239.9444435305099,211.94245570875088,198.56731877505445,204.29365874790483,187.44193139302155,180.44862503000724
69,239.56393186305675,212.6047322348668,198.39735415709902,204.8298669199653,187.29874232699856,180.38065442687753
70,239.1479009206474,213.25641836401482,198.21986081876736,205.369691978835,187.16828181229883,180.32763306146512
71,238.69722787091337,213.8960593409579,198.03522228470945,205.9119439778102,187.05085400601592,180.28969646465964
72,238.21286139548255,214.52221955303438,197.8438374887761,206.45542429002018,186.94673822335454,180.26695070983772
73,237.69581968721445,215.13348483983114,197.64612001484423,206.99892767645377,186.8561886078117,180.25947240097162
74,237.14718826163357,215.72846479894872,197.44249729233115,207.5412444059262,186.77943384938547,180.2673087237958
75,236.5681175825603,216.30579508785868,197.23340974639774,208.08116242698574,186.71667695081132,180.29047756003112
76,235.95982050194044,216.86413972185323,197.01930990284052,208.61746959176082,186.66809504182638,180.3289676646671
77,235.32356951387186,217.40219336808656,196.80066144767255,209.1489559317467,186.6338392414614,180.38273890630202
78,234.66069382282996,217.91868363570882,196.57793824139358,209.6744159855328,186.61403456836027,180.45172257054097
79,233.97257622608996,218.412373362092,196.35162328794857,210.1926511784694,186.60877989912763,180.5358217264515
80,233.26064981034853,218.88206289514807,196.1222076583756,210.7024722542752,186.61814797470362,180.63491165607738
81,232.52639446254182,219.32659237173897,195.89018936914238,211.20270175858428,186.64218545476703,180.74884034701034
82,231.77133319486285,219.74484399217937,195.656072215172,211.69217657443355,186.6809130201656,180.87742904801922
83,230.99702828397577,220.13574429083081,195.4203645575571,212.16975050969006,186.73432552337448,181.02047288773747
84,230.20507722442852,220.49826640278854,195.18357806596345,212.6342969364185,186.80239218698213,181.17774155640836
85,229.39710849626357,220.83143232666035,194.94622641572212,213.0847114821886,186.88505685020402,181.3489800506879
86,228.57477714682614,221.13431518343754,194.7088239396107,213.51991477332297,186.98223826342416,181.53390948150584
87,227.73976018677072,221.40604147145785,194.47188423432343,213.9388552300844,187.09383043076429,181.73222794498443
88,226.89375180026542,221.64579331746103,194.23591872163007,214.34051191380408,187.21970300068062,181.94361145641517
89,226.03845836939425,221.8528107237359,194.001435164224,214.7238974259488,187.3597017045887,182.1677149472932
90,225.17559331275726,222.02639381136032,193.7689361362589,215.08806085912946,187.51364884351557,182.4041733254099
91,224.30687173826874,222.16590505953232,193.5389174485746,215.43209080004854,187.68134382277998,182.65260259800291
92,223.43400491015328,222.27077154099467,193.31186652861163,215.7551183843884,187.8625637347001,182.91260105796454
93,222.55869453013977,222.34048715355016,193.0882607550148,216.0563204036392,188.05706398932915,183.18375053310768
94,221.6826268328535,222.37461484767036,192.8685657469257,216.33492246386726,188.26457899321852,183.4656176984896
95,220.80746649540563,222.3727888501955,192.6532336079641,216.59020219642312,188.48482287620897,183.75775545179383
96,219.93485036118153,222.334716884127,192.44270112489815,216.82149252058989,188.71749026624911,184.0597043517698
97,219.06638097782616,222.26018238451226,192.23738792100366,217.0281849581717,188.96225711224196,184.3709941197302
98,218.20361994942792,222.1490467104212,192.03769456411214,217.2097330000221,189.21878155491913,184.69114520410653
99,217.34808110290015,222.00125135301522,191.84400062934793,217.36565552451265,189.4867048457427,185.01967040806227
100,216.5012234685609,221.81682013970823,191.656662716554,217.49554026794135,189.76565231383472,185.35607658016391
101,215.6644440749101,221.59586143441976,191.47601242240685,217.59904734688155,190.0552343809348,185.6998663681101
102,214.8390705576053,221.3385703339206,191.3023542672203,217.67591283247046,190.35504762438478,186.05054003551828
103,214.0263535826348,221.04523086026973,191.13596357643806,217.72595237663813,190.66467588814206,186.40759734176973
104,213.22745908368913,220.71621814934457,190.9770843168154,217.74906489027626,190.98369144181962,186.77053948491178
105,212.44346031373,220.35200063546222,190.82592688728954,217.74523627334707,191.31165618775458,187.13887110761866
106,211.6753297107578,219.95314223209385,190.68266586453916,217.71454319693262,191.648122916104,187.51210236620952
107,210.9239305777765,219.5203045086704,190.54743770323256,217.65715693722353,191.99263660796868,187.88975106272483
108,210.19000857695661,219.05424886348095,190.42033839096496,217.57334726144845,192.3447357865446,188.27134484006038
109,209.4741830379964,218.5558386926632,190.30142105788465,217.46348636574308,192.7039539163019,188.6564234401593
110,208.77693808068054,218.02604155528576,190.1906935410079,217.3280528649596,193.06982085019206,189.0445410252618
111,208.09861355163707,217.46593133452313,190.08811590322307,217.16763583441613,193.4418643248821,189.43526856221288
112,207.43939577529213,216.87669039492215,189.99359790698333,216.98293890358605,193.8196115040173,189.82819626982794
113,206.79930811902267,216.2596117357612,189.90699644268852,216.7747844017276,194.20259056951105,190.2229361293162
114,206.17820137250715,215.6161011405013,189.82811291175574,216.54411755545337,194.5903323608626,190.61912445776193
115,205.5757439412739,214.94767932232935,189.756690564379,216.29201073824018,194.98237206250266,191.01642454466375
116,204.99141185444796,214.25598406579337,189.69241179197766,216.01966777187863,195.3782509391667,191.41452935153154
117,204.42447858669524,213.54277236453038,189.63489537433395,215.72842827986304,195.77751811929565,191.8131642745415
118,203.874004694365,212.80992255508582,189.58369368141913,215.41977209272125,196.17973242646488,192.2120899702488
119,203.33882726583013,212.05943644682554,189.53828982990885,215.09532370528467,196.5844642588404,192.61110524435833
120,202.81754918602547,211.2934414479398,189.4980947943872,214.75685678589824,196.9912975166631,193.01005000355318
121,202.30852821518394,210.51419268753938,189.46244447323983,214.40629873757047,197.39983157776066,193.4088082703811
122,201.80986588177058,209.72407513384383,189.43059670923583,214.04573531106382,197.80968332108694,193.80731126119866
123,201.3193961896148,208.92560570846211,189.4017282647987,213.67741526992478,198.22048919828953,194.20554052717355
124,200.83467413924004,208.12143539676492,189.37493175196596,213.30375510745424,198.63190735330457,194.60353115834442
125,200.35296406339205,207.31435135434967,189.34921251703813,212.9273438156178,199.04361978997977,195.0013750507389
126,199.87144003777058,206.50682518312306,189.32387881768634,212.5501034334917,199.4553528070817,195.39939036896632
127,199.38799057661143,205.69963069689032,189.29971937993605,212.17077226818827,199.86691173284248,195.7985535580557
128,198.9008860638855,204.89316427623743,189.27782430185601,211.78745607444478,200.27808985806664,196.1998834850603
129,198.40860246907118,204.08788832059776,189.25919463872125,211.39846725801536,200.688647202052,196.60426381662742
130,197.90981263915506,203.28432632897034,189.24474541410103,211.00231646973666,201.09831300725037,197.01244901019672
131,197.40337773444926,202.4830580843194,189.2353085892554,210.59770433475205,201.50678818125607,197.42507020345556
132,196.8883388082253,201.68471494165607,189.23163599083972,210.18351331689382,201.9137476861225,197.84264100205152
133,196.36390853016482,200.88997521980164,189.2344021969182,209.758799718224,202.31884287500657,198.26556316556147
134,195.82946305362674,200.09955969683253,189.24420738128512,209.32278581373316,202.72170377614125,198.6941321917181
135,195.28453402673136,199.31422720920727,189.26158011609505,208.87485212119785,203.12194132413583,199.1285427988928
136,194.72880074726058,198.5347703545749,189.2869801328012,208.41452980619607,203.51914953860447,199.5688943068363
137,194.16208246137555,197.76201129826566,189.32080104140218,207.94149322228137,203.91290765012212,200.0151959156754
138,193.5843308061503,196.99679768346286,189.36337300799718,207.45555258631492,204.3027821735091,200.46737188316732
139,192.99562239592228,196.23999864505691,189.41496539064966,206.95664678895616,204.68832892844313,200.92526660021073
140,192.39615155245966,195.492500927181,189.47578933355922,206.4448363403116,205.06909500739945,201.38864956461373
141,191.78622317894508,194.75520510442863,189.5460003195421,205.92029645074206,205.44462069091895,201.85722025311895
142,191.16624577777617,194.0290219067527,189.62570068081988,205.38331024682805,205.81444131020424,202.33061289168543
143,190.53672461218272,193.31486864804657,189.71494206811684,204.83426212249373,206.1780890570435,202.8084011240276
144,189.8982550116604,192.61366575840685,189.8137278780654,204.27363122528897,206.53509474106252,203.29010257841108
145,189.25151582122146,191.92633342007807,189.92201563892024,203.70198507782965,206.8849894943045,203.7751833327056
146,188.59726299446146,191.25378830707865,190.03971935458057,203.11997333439666,207.227306423138,204.26306227769481
147,187.93632333044343,190.59694042850933,190.1667118069211,202.52832167269275,207.5615822074925,204.75311537864303
148,187.2695883543979,189.95669007554278,190.30282681643118,201.927825820758,207.88735864742242,205.24467983511897
149,186.59800834224038,189.3339248720954,190.44786146116235,201.31934571904344,208.2041841569985,205.73705813907645
150,185.92258648890478,188.7295169291806,190.60157825398443,200.70379981764327,208.51161520552762,206.229522031192
151,185.2443732204939,188.14432010294394,190.7637072781499,200.0821595086848,208.8092177061003,206.72131635545966
152,184.56446065024653,187.57916735638022,190.93394828116675,199.4554436938775,209.0965683514662,207.21166281204222
153,183.88397717832095,187.034868224732,191.11197272697962,198.82471348721953,209.3732558972377,207.69976360838018
154,183.2040822353955,186.51220638457013,191.2974258064595,198.19106705286347,209.63888239242118,208.18480500855685
155,182.5259611700854,186.0119373265561,191.48992840620173,197.5556345781394,209.89306435727644,208.66596078092113
156,181.85082028017655,185.5347861318859,191.68907903563235,196.91957338173717,210.135433908504,209.14239554396678
157,181.17988198767563,185.08144535241587,191.89445571242297,196.28406315704646,210.36563983176057,209.6132680104688
158,180.5143801576773,184.65257299447023,192.1056178062141,195.6503013506552,210.58334860150188,210.07773412987694
159,179.85555556104765,184.2487906063306,192.32210784064654,195.01949867600666,210.78824534815416,210.53495012896576
160,179.2046514809245,183.8706814694066,192.54345325370164,194.3928747622143,210.98003477261318,210.98407545074213
161,178.56290946303437,183.51878889308935,192.76916811634956,193.7716539380354,211.15844200807118,211.42427559160933
162,177.93156520982595,183.1936146132856,192.9987548095062,193.1570611510028,211.32321342917209,211.85472483678836
163,177.31184461842045,182.89561729463438,193.23170565929837,192.55031802171504,211.47411740849435,212.274608893996
164,176.7049599623784,182.62521113640514,193.46750453063746,191.9526390332847,211.61094502036192,212.68312742538
165,176.11210621728327,182.38276458207764,193.7056283791014,191.36522785594505,211.73351069198299,213.07949647771105
166,175.53445753014148,182.16859913260373,193.94554876112528,190.78927380681517,211.84165280191692,213.46295081083204
167,174.9731638325994,181.98298826335068,194.18673330249993,190.22594844482336,211.93523422586904,213.8327461243639
168,174.4293475979769,181.8261564447268,194.42864712517934,189.67640230078868,212.01414282981312,214.18816118266852
169,173.90410074211735,181.69827826648796,194.67075423239623,189.1417617426609,212.07829191044235,214.5284998380689
170,173.39848166805444,181.5994776657269,194.9125188520861,188.62312597591892,212.12762058294766,214.8530929523259
171,172.91351245449573,181.52982725854335,195.15340673861965,188.12156417912726,212.16209411612448,215.16130021637207
172,172.45017618812273,181.48934777539662,195.3928864328437,187.638112774651,212.18170421480716,215.45251186830254
