ID,u1,u2,u3,u4,u5,u6
0,0.16440311673646502,-0.053093214275035105,-0.10976857176911636,0.025176536855195497,0.04971776154506369,-0.07082982673324123
1,0.16434089569643673,-0.05297451152668953,-0.10976721498732778,0.0252581434221244,0.04964818025565876,-0.07072734185894758
2,0.16427921796077039,-0.05282436261471024,-0.10976461626360087,0.025348257651006012,0.04956610805557027,-0.07060927599901845
3,0.16421400617397852,-0.052625691915578976,-0.10975360941440321,0.025427663111650123,0.04944606037525112,-0.07046203194668799
4,0.16411147405633653,-0.052391389072345085,-0.10971744189111847,0.02550391651748818,0.04927762663867519,-0.07028101676537846
5,0.16400305498480483,-0.05214944383366471,-0.10969079219550741,0.025607178687867993,0.049113819660194125,-0.07009117673595755
6,0.16389356635687458,-0.05189753712696765,-0.1096581013903839,0.025726247833887772,0.04895275003433586,-0.0698964806304403
7,0.163809789900065,-0.05163679688999645,-0.1096377163885305,0.02586523013594455,0.0488131095268729,-0.06971385359294846
8,0.16373548257105508,-0.051351399492300276,-0.10960134716633853,0.025999444340261135,0.04866676946751802,-0.06953285923508812
9,0.16367759220723332,-0.05104515898204465,-0.10956922067810182,0.026138043391232824,0.04852034939379912,-0.06935159334379559
10,0.16359380316857663,-0.05071117960948768,-0.10950593715652446,0.02626167611988839,0.04833168908368979,-0.0691420475642821
11,0.16346665375324676,-0.050347080498089225,-0.10942106002653065,0.026383019689993237,0.048091739918644905,-0.06889044288097601
12,0.16333387044541148,-0.049953751373732924,-0.10933677210227152,0.026511325680618203,0.04783229801540578,-0.06861168083441394
13,0.16320344726162395,-0.04952929141034823,-0.10924850045869143,0.026627176225696658,0.047545267796894386,-0.06830966414858253
14,0.1630426007949657,-0.04907424291728191,-0.10910860761254854,0.026693851278539515,0.04719281792270191,-0.06798726586378034
15,0.16295482927169713,-0.048615514491797684,-0.10900443371432916,0.02675803599845583,0.04689188832078983,-0.06770453842584123
16,0.16295642545022604,-0.048141783721056264,-0.10894192098998276,0.026806357934123337,0.04663910986495967,-0.06746854690428306
17,0.16306063436707552,-0.04760497227993987,-0.10892612574278533,0.02680901306410588,0.04640541174714663,-0.06725913481228973
18,0.1633954417943344,-0.04698200479124348,-0.10902785470192711,0.02675202105935437,0.046257123568517855,-0.06713660817560818
19,0.16394780541528275,-0.04621704582948016,-0.1092125243755651,0.02657070171013398,0.04611619782339904,-0.06707197678884924
20,0.16478695611342653,-0.04528155377914689,-0.10952409558614133,0.026266066946206923,0.04601146125207478,-0.06706921134629296
21,0.1659531492337667,-0.04414979963201082,-0.10999490684599252,0.025835904671493548,0.0459423031259929,-0.06710736421939556
22,0.1672627380153866,-0.042743054798683344,-0.11051769481843404,0.02526538313988258,0.045731786994636536,-0.06701011958271552
23,0.16871552120959032,-0.04118123501160209,-0.11116520991466505,0.024709402726803997,0.04550668078450926,-0.06683578629812859
24,0.1701348082659857,-0.03950890469948143,-0.11181651518323042,0.024186250265973985,0.04516148778176188,-0.06652568844514084
25,0.17149980257137587,-0.03778226862308731,-0.11245314267386056,0.02374871448927829,0.04472513077047946,-0.06606151984525743
26,0.17268867988503978,-0.03611294839143331,-0.11300957219172712,0.023435786403600556,0.044193964702025745,-0.06543056200598896
27,0.17371650195675548,-0.03454804660001076,-0.1134929410479504,0.023276466656676043,0.043616041534020766,-0.06467707354230035
28,0.17459622232251304,-0.03306003506120647,-0.11386211417846119,0.023227570035755374,0.042961702705603955,-0.0637961972158414
29,0.17534000522088933,-0.03159411261686129,-0.11414525592534669,0.023289087350163218,0.04220864064118501,-0.06275828994619337
30,0.17599475294732292,-0.030083013849855567,-0.11434854520969186,0.023423600152112645,0.04132982930470597,-0.06154295447104774
31,0.17658212153238706,-0.028550075623822835,-0.11450834519477264,0.023677709993780827,0.0403906649254413,-0.06019543808439343
32,0.1771519802717343,-0.026907928885028465,-0.11461824259521046,0.023947451571096234,0.039313581183428425,-0.05867421718841248
33,0.17794851840951376,-0.025094408755284903,-0.11481077017774569,0.024248458732199385,0.03826551608258377,-0.057129363825774604
34,0.17902980639794341,-0.023021229476238636,-0.11508008355915858,0.02451520968983223,0.037217793399767274,-0.055588673837273284
35,0.1805202435371953,-0.02070632346445378,-0.11549491257541114,0.02475211818870182,0.03626066524744331,-0.05409552615247959
36,0.18235571789586968,-0.0182158005532167,-0.11601342048201223,0.024968563193471738,0.0353914375749147,-0.05269419051542501
37,0.18450359695528817,-0.015620604758181722,-0.11661392412934493,0.02517869814684781,0.03463742358346611,-0.051410195520416035
38,0.18711137539004108,-0.012859980886997135,-0.11734890585018086,0.025346125759182492,0.03402365425309917,-0.05026970436908895
39,0.1900004163838287,-0.009897175207235653,-0.11812595871759812,0.025498480294676273,0.033412150027242404,-0.04907516999752248
40,0.19290311602514842,-0.006962035185897442,-0.11885774593354259,0.02576813724057292,0.03283111234890068,-0.0478619353907499
41,0.1958698477851213,-0.004058196409859383,-0.11954757413949925,0.026115156603248035,0.03228629364282476,-0.04669790267661034
42,0.19894906763519193,-0.0011021164442768239,-0.12021063293239417,0.026504470970043492,0.03173002828769267,-0.04552722821169741
43,0.20213524854190856,0.001935509354189513,-0.12085980313257084,0.026931904162467823,0.03114120161445655,-0.044326992535868914
44,0.2055266661609716,0.00498871642307086,-0.1215525025587029,0.027425462655309207,0.030643023095515254,-0.04320554649456865
45,0.2091002979607821,0.008073159076213088,-0.12228149176816959,0.02798510788380648,0.030214723695205947,-0.04213122466008912
46,0.21281333987805873,0.011278469808297276,-0.12296636698874015,0.028519019375630617,0.02971865137507912,-0.04101598744356849
47,0.21662533849608012,0.014549715727985912,-0.12364659817958108,0.029113858740311027,0.02921617883032024,-0.03981372262853178
48,0.2204072134629933,0.01775684314130621,-0.12429703840094959,0.02983667039916904,0.028723924690173597,-0.038614893449315346
49,0.22431973759782098,0.021045031494424604,-0.1249673177564985,0.030648963482865277,0.02824132574822258,-0.03735594401613618
50,0.22836130467560078,0.024385458412820027,-0.12566011933053334,0.03159403040191311,0.02781767970902127,-0.03602607487956089
51,0.23231728570951526,0.027864451880524888,-0.1261663266857287,0.032543195001801806,0.027182120378913766,-0.0345074168900954
52,0.23612178437183884,0.031294788927708206,-0.1264414302824164,0.03354142513577596,0.026409572279779248,-0.032851242024946714
53,0.2398287579408258,0.03496565636935012,-0.1265462438141968,0.03459288083017498,0.025371642740572575,-0.030975896964318572
54,0.24347154095301482,0.03853112169585038,-0.1265555881807061,0.035853349457591666,0.02439927760555438,-0.029022774105189164
55,0.24693684056846088,0.04210616445799875,-0.1263914114629532,0.03725226085584721,0.02330607763235637,-0.02685313165151415
56,0.2501587922720381,0.04580447034648727,-0.1259607270361689,0.038682557633795245,0.021923210413387295,-0.024324085125952966
57,0.2534366538234263,0.049465229701932234,-0.12550873756787334,0.04030490795058084,0.020666195720252745,-0.021746312885352115
58,0.25686740999351976,0.05299723613017959,-0.12510064938895066,0.04217328822815425,0.019695818161764578,-0.019339297954496182
59,0.2602508700775772,0.05659765862834942,-0.12457327308965065,0.044142154608291406,0.01868136202532078,-0.01681638840687638
60,0.2635689472952918,0.06023260812247444,-0.12398511794955942,0.046260165169941914,0.017665350505789768,-0.01421476862432991
61,0.2668634836099715,0.06389933909308332,-0.12341425175110049,0.048494803168617207,0.016656494631671848,-0.011496613233791031
62,0.2706270695930524,0.06760934352335002,-0.12312339389791682,0.050813638780131676,0.01595132384770981,-0.009022610903060002
63,0.27513946426768054,0.07150729705724457,-0.12320106420337326,0.053125050043104416,0.015608796419631865,-0.006817386959898197
64,0.2800755920990463,0.07547859962748982,-0.12355571975148513,0.055519084097406246,0.015523184566064607,-0.00478123342341652
65,0.2852789752726217,0.07946568510715757,-0.12411577302514074,0.058020018924045846,0.015609708325118099,-0.0028686210678161572
66,0.2907696773019519,0.08358495788397313,-0.12482599286663679,0.06055822958634849,0.015755844720318102,-0.0009681001828276692
67,0.2962238815734395,0.08776180239071651,-0.12550753155730957,0.06319207715643937,0.0158039941311392,0.0010445348985879122
68,0.3019044038454046,0.0916995523415729,-0.12650027203941117,0.06621970931243526,0.016282034766414988,0.002963666866855341
69,0.30725986509189207,0.09548808526419128,-0.12741101199037033,0.06954221138261385,0.01669034537619485,0.005118203639268071
70,0.3121197948216614,0.09903689768070634,-0.12816387252395306,0.07319668829269821,0.01699380253261218,0.007535109413020713
71,0.31636555695920787,0.10241797222207527,-0.12863875314894058,0.07710698119245807,0.01702839646799781,0.010287810388605045
72,0.32026923196514945,0.10547624801921884,-0.12908039996810622,0.08134572766375081,0.01709135313181509,0.013150631766761567
73,0.3237655158544803,0.10827512807947648,-0.12936402688344203,0.08575961326948711,0.017039083285529166,0.016129186979157772
74,0.3271401875049156,0.11100645806595932,-0.12960055726982883,0.09020852348889585,0.01688579216883479,0.01923540019151382
75,0.33059227364800625,0.11366626656358503,-0.1299425497006359,0.09463716224872076,0.01670682556051517,0.022327436435168213
76,0.3342555098579365,0.11637548095539518,-0.1304335315468054,0.09897702635974737,0.01647728954320904,0.02543317939661982
77,0.3379047487875333,0.11904278528547008,-0.13096399137366066,0.10319917982049365,0.016062731646447226,0.02854834122633898
78,0.34169804319605035,0.12176601866823966,-0.13165341915904494,0.10733518218841676,0.015539703309153552,0.031764425632012205
79,0.34548666078507706,0.12448067049392053,-0.13239434766474303,0.11136956328492253,0.014846001236908712,0.0350686966057876
80,0.3492750507644904,0.12709920206476677,-0.13327014043756738,0.11534342115308727,0.014024143509939968,0.038426064635411095
81,0.353296256407972,0.1296391706391451,-0.1344637337935966,0.1193178888783577,0.013269425547683511,0.04183254766063005
82,0.3573493477114904,0.13195923555038713,-0.13592590095427082,0.12336382774609422,0.012532674227067275,0.045268657637757226
83,0.36108186406279774,0.1340466558522384,-0.13738769694566408,0.12746393719424542,0.011645974636175005,0.048868278825263456
84,0.3644572802530419,0.1358202552668606,-0.1388872818938277,0.13171899168906354,0.01071150946124444,0.052634856415862075
85,0.36737246273906043,0.13731261993496702,-0.1403324883305596,0.13609674669596172,0.009641731874537207,0.0565984567961495
86,0.36993929595041664,0.1385801107978477,-0.14176168463987898,0.14058910436137584,0.008506120039228016,0.060751337849560993
87,0.3722227655638415,0.13969297617224452,-0.14318544601876168,0.14516538936364176,0.007301432116649131,0.06510904025371511
88,0.3740930590022771,0.14058981369712442,-0.14454700558392564,0.14982834049366867,0.006012300177434149,0.06962332883675604
89,0.3756816239541858,0.14118312368804342,-0.1459926687320559,0.15453600142970725,0.004698973752858215,0.07410995019228217
90,0.3772920896632419,0.14176154332862367,-0.14748201606775,0.15906718521764107,0.0032992703597720663,0.0786284777544557
91,0.37885530831893144,0.14234535594818354,-0.14894817431716512,0.163415840374034,0.0017974462845611328,0.08319531789688472
92,0.3803179107006769,0.14285384279452362,-0.15040071682157174,0.16759195225597345,0.00023164765946503962,0.0876920246059174
93,0.38169041176525154,0.14325063800202198,-0.1518920892519252,0.171655616269494,-0.0013410363909720502,0.09211728336251701
94,0.382945864860766,0.14359806199580505,-0.15335693935330882,0.1755868593501857,-0.002958777373111232,0.09652319090618455
95,0.38392408260639055,0.14383150577086723,-0.15466379321787876,0.17931662369558365,-0.004753341681927203,0.1008183305088508
96,0.38476706220442836,0.14391748327140452,-0.15600393879921104,0.1829533985292029,-0.0065415265961776825,0.10498777944875037
97,0.3857300015730809,0.1439637115994088,-0.15750956357651108,0.18643537282948852,-0.008305333114836166,0.10903815633841285
98,0.38672795448200814,0.14408166831701763,-0.15892965813220047,0.1896267006303627,-0.010142399278243452,0.11298539314644751
99,0.3876167931691392,0.1440965406961614,-0.16030794741806026,0.19260163554819298,-0.012015556240291048,0.11671680410039054
100,0.3884113821440449,0.14406179212963055,-0.1615950843411687,0.19528789001481917,-0.014000650485378685,0.1202451168700307
101,0.3893295712664582,0.14387375635576483,-0.1631286420033704,0.19786642072774985,-0.015810528458171547,0.12349801386291492
102,0.3904976955613466,0.14367799372394208,-0.16490562105141265,0.20021112307817823,-0.017543232984400525,0.12651161741402817
103,0.39164523098633053,0.14328793229879322,-0.16678305101651908,0.20240091092708035,-0.019084141368750807,0.12914114836690738
104,0.39299719472019534,0.142958449359458,-0.16876205439409017,0.20424698477714287,-0.020669989368996333,0.13154883842382592
105,0.3945187473088101,0.14262403088220066,-0.170848315565615,0.20575718861931813,-0.022289082035913843,0.13364691151549613
106,0.39628538244389055,0.142152713285558,-0.17327068934578008,0.20708504309187425,-0.02378171681089203,0.13535915729101733
107,0.39807937346071665,0.14171438177356088,-0.17566150526688043,0.20811941930530287,-0.025355052201935457,0.1368820385549432
108,0.3998452742032148,0.14142317338190735,-0.1778701157936518,0.20888970978106292,-0.026976135600513373,0.13838000744064605
109,0.4016611363858211,0.14108360550036503,-0.18015834493195798,0.20954039907290145,-0.02849903377716334,0.13969359339628884
110,0.40352821889313706,0.14076934421569276,-0.1824369425436791,0.2100570607570158,-0.029941266745595385,0.1408880284672165
111,0.40538777168571416,0.14046437247753008,-0.18465523382707555,0.21045068357584062,-0.031365410145020256,0.14193585784263396
112,0.40683123251449027,0.14017148744521335,-0.18647369492231436,0.2108843789855488,-0.03271799813725185,0.1430097844802174
113,0.4076370692206508,0.1397421942986563,-0.18787127420083732,0.21151877771039285,-0.03396069324595796,0.14412210006571247
114,0.4080594556801782,0.1393112151178122,-0.18892432880804483,0.21227160443910797,-0.03509637422328993,0.14532187470089575
115,0.4081801988251068,0.13896108833791532,-0.189608250288478,0.21304707363393982,-0.036167174017772474,0.1466019864957926
116,0.4079495613323978,0.13856100675645777,-0.19001829892276062,0.21392713440844746,-0.03708186159060389,0.1478529972685716
117,0.4076416827010467,0.13814455515034973,-0.19036629274948075,0.21486231121687238,-0.037765540406280884,0.1490215883299566
118,0.4070077813031343,0.1378885589128842,-0.1902197503627464,0.21555040640694978,-0.03865924607821292,0.1502150330243932
119,0.40646126531938886,0.13770158677345545,-0.19006170504643455,0.21611056923066796,-0.03943785733820171,0.15126557562461596
120,0.4061151533826073,0.1376214022853568,-0.18995959854845085,0.21649222805937818,-0.040131147886182106,0.15217625067609886
121,0.4059989570926157,0.13755323062262081,-0.1900450163407909,0.21679293497539698,-0.04062684439625919,0.15288818624252887
122,0.4060195310912724,0.1375546185938692,-0.19016785330812536,0.21692730297746365,-0.041065930887122626,0.15344561991868533
123,0.40622256557707814,0.13767281656546615,-0.1903176083462813,0.2168796132398194,-0.041458582239044084,0.1538831881458531
124,0.40648060471635894,0.1377726861823565,-0.190524895923517,0.21678219028198864,-0.04172753727083034,0.154154822648632
125,0.4066592233337638,0.1379010368348086,-0.19062116231025628,0.21662873271223937,-0.04192756511590634,0.15433605456333677
126,0.40674710065049346,0.13803755004591234,-0.19061451245465033,0.2164157737978325,-0.04209730436813075,0.15443210144932884
127,0.4069697030210153,0.1383271942555766,-0.19057382135003642,0.2161179746035291,-0.042172930500340655,0.15452471840357873
128,0.40715921414300205,0.13862488297207998,-0.19048000275282861,0.21575956817783393,-0.04220374526068493,0.15452015050802048
129,0.40741288660921615,0.13893140521607727,-0.19042804302448219,0.21535730118299545,-0.04216192500255378,0.1544397014691743
130,0.4076785285851159,0.13925985858863932,-0.19035113430283523,0.21490396348548257,-0.04205738675459525,0.15427364434415392
131,0.40770567105336575,0.13959700208548642,-0.19000330547745659,0.21430715099852282,-0.04210049982886854,0.15402275568441004
132,0.40765390901095566,0.139975607186839,-0.1895172055419821,0.21360267626894247,-0.04217963929757129,0.15368178522058518
133,0.40760177121509766,0.14036702425149583,-0.1889982380124161,0.21283463676423064,-0.04226574686302431,0.15327472476065473
134,0.4075275856788769,0.1407671399765773,-0.18843520019652793,0.2120162716484657,-0.04236422212165092,0.15281799147927888
135,0.40746641207520584,0.14113434532446645,-0.18791405119736865,0.2112004462815773,-0.04243754831439972,0.1523096374899513
136,0.4073754241420984,0.14150248648316177,-0.18735717489767212,0.21035664754475958,-0.042538257976622695,0.15178254718275586
137,0.40727939021114334,0.14185286790065588,-0.18681435135433716,0.20952122566770548,-0.042646703971207955,0.15125184621425092
138,0.40717925756789164,0.14219272828651275,-0.1862831023872823,0.2087078108921272,-0.042757621689100134,0.15073600500025286
139,0.407096141994729,0.14254248987031937,-0.18576337286284622,0.2079149723549163,-0.04287841212699561,0.1502600217853134
140,0.40700378075197996,0.1428663177422287,-0.18527395476004616,0.2071705009307241,-0.043008999552788474,0.14982042487670544
141,0.4069208399836244,0.14314729493570177,-0.18484852637006038,0.20650746271262266,-0.04310848287264957,0.14941167880203787
142,0.4068593968814511,0.14338409730877166,-0.18450705198765566,0.2059483941156497,-0.04317794771898775,0.14907750665268527
143,0.4067836349552665,0.14360467970532143,-0.18416678149535737,0.20542713224847908,-0.04326946820473587,0.14878191929597895
144,0.40667984753583974,0.14380058213852132,-0.18382560887250587,0.20494594331615756,-0.04338312778657727,0.14851882362988267
145,0.4067458203962868,0.14403795395985597,-0.1836347271064912,0.20457901784453636,-0.04336203587737675,0.14836292181513588
146,0.4068278966134704,0.14424619579866937,-0.18349425440418032,0.2042797009772488,-0.043312641728079804,0.14823056145915592
147,0.40672763314340665,0.1443664568710321,-0.18325312514572667,0.2040154396777294,-0.043336169670148195,0.14808678655534369
148,0.4066314010777736,0.1444737460462826,-0.18303338196564262,0.2037846860448349,-0.04337904427317074,0.14797429265048034
149,0.40653430612527375,0.144586156324239,-0.1828084673553783,0.20356404046848464,-0.04346450587462947,0.14789535898500983
150,0.40646554393675904,0.1446520803185174,-0.1826704636492747,0.20340049305871277,-0.043534224530221266,0.14781980269791095
151,0.4063927907497833,0.14471149351076362,-0.1825361353644403,0.2032620296116896,-0.04361662926082488,0.1477677467134746
152,0.40633120803456224,0.14475664578865244,-0.18242909441657196,0.2031468881290417,-0.04370828345711342,0.1477253392362332
153,0.40626758810756947,0.14480100269694574,-0.18231859053411964,0.2030444716885218,-0.043804385168410676,0.14769213080782828
154,0.40621268360830465,0.1448434412445494,-0.18221474183725295,0.20294059351565608,-0.04391994966438961,0.1476582834054101
155,0.40620181625137786,0.14487451268902918,-0.1821692471928631,0.20287552601994285,-0.0439981377208003,0.1476302156025726
156,0.40621317106590693,0.14490237307368958,-0.182152617789252,0.20282557376017163,-0.044074280061479065,0.14761175665546444
157,0.4062426862135524,0.14492113167725518,-0.1821648518703703,0.20279576264355148,-0.04413643752418217,0.14759548555142388
158,0.4062898887319353,0.14494390378068278,-0.18219249907444507,0.2027701197034859,-0.04419935198215352,0.14758571578863178
