ID,u1,u2,u3,u4,u5,u6
0,-0.011863974780877695,0.01764723047544048,-0.027091106773216855,0.013464552377045524,0.021699720738673045,0.0052381877555717216
1,-0.01772139485997304,0.023884677855297187,-0.03048196988268742,0.01029799284990901,0.023309400232554955,0.009656722574655496
2,-0.023605148395328956,0.030134910560794648,-0.03388649262407811,0.007143673365612335,0.0249155400727612,0.01407635191811113
3,-0.029538971185184337,0.03640907760450324,-0.03731694821277576,0.004013277505080737,0.026514684820914902,0.01849760085060237
4,-0.03554387026174688,0.0427166165766103,-0.040784154249745186,0.0009178913245060927,0.0281034727864668,0.022920405435705504
5,-0.04163823773766767,0.04906533338323793,-0.04429753431697153,-0.0021319861820626174,0.029678638003708957,0.02734414756560094
6,-0.04783796279063818,0.05546148059124639,-0.04786517855626121,-0.005126432636004041,0.0312370121132729,0.031767689111098674
7,-0.054156541786107626,0.06190983437952041,-0.05149390323140057,-0.008056091843284707,0.0327755261481113,0.03618940539199672
8,-0.0606051865381228,0.06841377009674221,-0.05518930927367249,-0.010912163379495798,0.03429121222396492,0.04060721796777478
9,-0.06719293070828775,0.07497533642564735,-0.0589558398107316,-0.013686392190764618,0.0357812051343126,0.04501862674861906
10,-0.07392673434284552,0.08159532815376463,-0.0627968366788364,-0.016371058210541745,0.03724274384980586,0.04942074142678338
11,-0.08081158654788156,0.08827335755064336,-0.06671459591844087,-0.018958965992264987,0.038673172922188304,0.05381031222828209
12,-0.08785060630264735,0.09500792435156158,-0.07071042225314295,-0.02144343435789725,0.04006994379269774,0.05818375998491748
13,-0.09504514141100612,0.10179648434772065,-0.0747846825519915,-0.023818286062341376,0.041430616004954124,0.0625372055266405
14,-0.1023948655910002,0.10863551658292547,-0.0789368582751516,-0.026077837473730603,0.042752858322330334,0.06686649839424591
15,-0.10989787370253817,0.11552058915674579,-0.0831655969029273,-0.02821688826959312,0.04403444974980797,0.07116724487239962
16,-0.11755077511320505,0.12244642363416636,-0.08746876234814285,-0.030230711148894918,0.045273280460316756,0.07543483534300072
17,-0.12534878520219223,0.12940695806171687,-0.09184348435188161,-0.03211504155995554,0.04646735262555851,0.0796644709588778
18,-0.13328581500234998,0.13639540859009103,-0.0962862068625836,-0.033866067444241255,0.04761478115131518,0.08385118963781685
19,-0.14135455898036042,0.1434043297032468,-0.1007927353985002,-0.03548041899603355,0.04871379431724088,0.08798989137692509
20,-0.14954658095503232,0.1504256730539929,-0.10535828339350789,-0.0369551584379727,0.0497627343211382,0.09207536288732693
21,-0.15785239815371632,0.15745084490605865,-0.10997751752627924,-0.03828776981247756,0.05076005772771863,0.09610230154919425
22,-0.16626156340684212,0.1644707621826491,-0.1146446020328118,-0.0394761487890406,0.05170433582184786,0.10006533868710982
23,-0.1747627454805779,0.17147590712148575,-0.11935324200231687,-0.04051859248739931,0.05259425486627345,0.10395906216576561
24,-0.1833438075476081,0.1784563805363275,-0.12409672565646304,-0.04141378931658196,0.05342861626383888,0.10777803830599281
25,-0.19199188379603654,0.1854019536849829,-0.1288679656119813,-0.04216080882983064,0.05420633662418023,0.11151683312112765
26,-0.20069345417640627,0.1923021187438002,-0.1336595391266252,-0.042759091595398424,0.05492644773490729,0.1151700328737087
27,-0.2094344172868451,0.1991461378886461,-0.13846372732849124,-0.04320843908322308,0.05558809643726986,0.11873226395250974
28,-0.21820016139632928,0.20592309098236794,-0.1432725534286962,-0.043509003567476445,0.056190544406306664,0.12219821206990517
29,-0.2269756336060702,0.2126219218687394,-0.1480778199174126,-0.04366127804498893,0.05673316783547944,0.12556264077956963
30,-0.23574540714902106,0.21923148327289232,-0.15287114474326238,-0.04366608616954981,0.05721545702579112,0.12882040931451072
31,-0.2444937468275057,0.2257405803082313,-0.1576439964760687,-0.043524572202083556,0.0576370158793873,0.1319664897454353
32,-0.2532046725889693,0.23213801258983502,-0.16238772845296556,-0.04323819097670173,0.057997561297643885,0.13499598345945113
33,-0.2618620212398489,0.23841261495433985,-0.16709361190786592,-0.04280869788263009,0.05829692248373641,0.13790413695909992
34,-0.2704495062975654,0.24455329678630844,-0.17175286808428655,-0.04223813886201122,0.05853504014969502,0.14068635698172433
35,-0.2789507759806386,0.25054907995108533,-0.17635669933153308,-0.04152884042358418,0.058711965627943896,0.1433382249391712
36,-0.28734946933692124,0.2563891353341323,-0.1808963191842411,-0.040683399672237885,0.058827859887323475,0.14585551067782426
37,-0.295629270509956,0.2620628179868534,-0.18536298142527635,-0.03970467435444175,0.058882992453598126,0.148234185558975
38,-0.3037739611434527,0.26755970087890024,-0.1897480081319927,-0.03859577291955052,0.058877740234447196,0.150470434859523
39,-0.31176747092388746,0.27286960725696474,-0.19404281670584794,-0.037360044596986774,0.05881258624894109,0.1525606694930131
40,-0.3195939262612229,0.2779826416100548,-0.19823894588537821,-0.03600106948929632,0.05868811826150022,0.1545015370510044
41,-0.3272376971077491,0.28288921924125443,-0.20232808074252956,-0.03452264868108179,0.05850502732033902,0.15628993216477344
42,-0.334683441915048,0.28758009444597044,-0.206302076662349,-0.0329287943638108,0.05826410620039485,0.15792300618735228
43,-0.3419161507290748,0.2920463872966599,-0.21015298230603113,-0.031223719976499087,0.05796624775073894,0.15939817619589686
44,-0.3489211864233663,0.29627960903404615,-0.2138730615573262,-0.029411830362270797,0.057612443146473624,0.16071313331439346
45,-0.35568432407036543,0.300271686064817,-0.21745481445230308,-0.027497711940793423,0.057203780045112396,0.16186585035669537
46,-0.3621917884508691,0.30401498256580617,-0.22089099709247145,-0.02548612289658775,0.056741440647444574,0.16285458878989373
47,-0.3684302897015997,0.3075023216946644,-0.22417464054126354,-0.02338198338321623,0.05622669966288524,0.16367790501802532
48,-0.37438705710089243,0.31072700540700804,-0.22729906870387057,-0.02119036574334271,0.055660922179306294,0.16433465598610802
49,-0.38004987099251014,0.3136828328800584,-0.23025791519044098,-0.01891648474467228,0.05504556143735567,0.1648240041045162
50,-0.38540709284757335,0.3163641175427613,-0.23304513916263336,-0.016565687831762987,0.05438215650925721,0.16514542149368466
51,-0.3904476934646175,0.3187657027123938,-0.23565504016353017,-0.014143445393716092,0.0536723298820973,0.16529869354915022
52,-0.3951612793077665,0.32088297583765346,-0.2380822719309074,-0.01165534104774002,0.05291778494559385,0.1652839218269238
53,-0.39953811698303054,0.32271188134823425,-0.24032185519386345,-0.009107061938590899,0.052120303384350475,0.16510152624919844
54,-0.40356915585272424,0.324248932110885,-0.24236918945280614,-0.006504389053888837,0.05128174247459427,0.16475224663038984
55,-0.40724604878800574,0.32549121949195303,-0.24422006374279648,-0.003853187555309001,0.0504040322853988,0.1642371435235101
56,-0.41056117105953827,0.32643642202641276,-0.24587066638025232,-0.0011593971256494418,0.049489172784389246,0.16355759838687717
57,-0.4135076373662713,0.3270828126933789,-0.24731759369300843,0.0015709776682264476,0.04853923084793421,0.16271531307115544
58,-0.4160793170023443,0.3274292647981025,-0.24855785773373545,0.004331876996571282,0.04755633717581964,0.16171230862673142
59,-0.41827084716211116,0.32747525646045395,-0.24958889297671666,0.00711719537205896,0.04654268311040766,0.16055092343142302
60,-0.4200776443832871,0.3272208737098886,-0.25040856199798345,0.009920791239215243,0.04550051736028071,0.15923381063852254
61,-0.42149591412821397,0.32666681218689764,-0.251015160138807,0.012736496547972598,0.04443214262836692,0.15776393494517166
62,-0.4225226585032508,0.3258143774509441,-0.25140741915255044,0.015558126311348341,0.04333991214455346,0.15614456868107335
63,-0.4231556821162818,0.3246654838948809,-0.2515845098348768,0.01837948814724799,0.04222622610278065,0.1543792872175343
64,-0.4233935960723485,0.32322265226585767,-0.2515460436373169,0.021194391804392976,0.041093528002622615,0.15247196369684263
65,-0.42323582010740207,0.32148900579270767,-0.251292073264194,0.023996658672372773,0.039944300895350504,0.15042676308197872
66,-0.42268258286017585,0.3194682649198213,-0.25082309225290667,0.026780131275820407,0.03878106353448074,0.14824813552666
67,-0.4217349202821823,0.31716474064750555,-0.25014003353757064,0.02953868275271382,0.03760636643080806,0.14594080906571943
68,-0.4203946721858265,0.31458332647882403,-0.24924426699601682,0.03226622631680043,0.03642278781192043,0.1435097816258168
69,-0.418664476930646,0.31172948897292563,-0.24813759598014984,0.03495672470414635,0.03523292948620094,0.14096031235648537
70,-0.41654776424766865,0.3086092569048555,-0.24682225282966255,0.03760419960381023,0.03403941261131199,0.13829791228151017
71,-0.4140487462018923,0.30522920903185025,-0.24530089336910935,0.04020274107264149,0.03284487336716391,0.13552833427064165
72,-0.41117240629288676,0.3015964604661192,-0.24357659038833773,0.04274651693420217,0.03165195853336855,0.13265756233164144
73,-0.4079244866935158,0.2977186476541085,-0.24165282610627759,0.045229782161814,0.030463320971176544,0.12969180022266352
74,-0.40431147362678177,0.2936039119622518,-0.23953348361808857,0.0476468882457291,0.02928161500989812,0.12663745938496745
75,-0.40034058088078994,0.2892608818692022,-0.23722283732566546,0.04999229254442594,0.028109491737809522,0.12350114619596636
76,-0.3960197314618364,0.2846986537645533,-0.23472554235150234,0.052260567620028786,0.026949594197541893,0.12028964854260765
77,-0.3913575373856135,0.279926771354039,-0.23204662293591294,0.05444641055785171,0.025804552485955867,0.11700992171508856
78,-0.3863632776065418,0.2749552036712245,-0.22919145981761158,0.05654465227006711,0.024676978758499335,0.1136690736209039
79,-0.3810468740852171,0.26979432169567463,-0.22616577659764925,0.05855026678349878,0.02356946213804989,0.11027434931922858
80,-0.3754188659939858,0.26445487357761377,-0.22297562508671123,0.06045838051153901,0.022484563528240797,0.1068331148756338
81,-0.36949038206063334,0.2589479584690636,-0.2196273696357684,0.06226428151018959,0.021424810331272526,0.10335284053713595
82,-0.3632731110502035,0.2532849989614714,-0.21612767045009165,0.06396342871822869,0.020392691070206137,0.09984108322758006
83,-0.3567792703849295,0.24747771212981828,-0.21248346588661934,0.06555146118150018,0.019390649915743574,0.09630546836335657
84,-0.35002157290229263,0.2415380791832139,-0.20870195373468636,0.06702420726132846,0.01842108111749008,0.0927536709894517
85,-0.34301319175120054,0.2354783137219768,-0.20479057148010976,0.06837769382705766,0.017486323339701237,0.08919339623583183
86,-0.3357677234262868,0.22931082860119611,-0.20075697555263303,0.06960815543271492,0.016588653901514983,0.08563235909416061
87,-0.328299148940329,0.2230482014007804,-0.19660901955672666,0.07071204347779753,0.015730282921667005,0.08207826351485131
88,-0.320621793134794,0.21670313850199063,-0.19235473148574994,0.07168603535218537,0.014913347367690122,0.07853878082445093
89,-0.3127502821284991,0.2102884377704568,-0.1880022899194679,0.07252704356517714,0.014139905009598941,0.07502152746335983
90,-0.3046994989043973,0.20381694984567944,-0.18355999920492772,0.07323222485865122,0.01341192827805704,0.07153404204388353
91,-0.2964845370344821,0.19730153803701544,-0.17903626362069247,0.07379898930435008,0.012731298027030546,0.06808376172861902
92,-0.28812065254281616,0.19075503682614958,-0.17443956052443402,0.07422500938529081,0.012099797200923135,0.06467799792917422
93,-0.27962321390667755,0.18419020897604832,-0.16977841248388212,0.07450822906129756,0.011519104406197578,0.0613239113252218
94,-0.2710076501958315,0.17761970124640103,-0.16506135839113406,0.07464687281866084,0.010990787387480161,0.0580284862038854
95,-0.26228939734991974,0.17105599871554222,-0.16029692356031963,0.07463945470391925,0.010516296408149994,0.054798504119461466
96,-0.25348384259397266,0.16451137770886137,-0.1554935888086257,0.07448478734176595,0.01009695753541151,0.05164051687347221
97,-0.24460626699204424,0.1579978573336961,-0.15065975852067956,0.07418199093708105,0.00973396582985242,0.04856081881505475
98,-0.23567178613896547,0.15152714962070934,-0.14580372769628805,0.07373050226108613,0.00942837843948452,0.04556541846168216
99,-0.22669528899022046,0.14511060827175126,-0.14093364798153668,0.07313008362162426,0.009181107598269844,0.042660009440218916
100,-0.21769137482994422,0.13875917601420684,-0.13605749268324582,0.0723808318175646,0.008992913529130453,0.03984994074830994
101,-0.20867428837704102,0.13248333056182582,-0.13118302076678554,0.07148318707733031,0.008864397251441947,0.037140186336102665
102,-0.19965785302942501,0.12629302918203988,-0.12631773983724792,0.0704379419815524,0.008795993293011672,0.034535314008304285
103,-0.19065540224637922,0.12019765186976106,-0.12146886810397725,0.06924625036984583,0.008787962306541552,0.03203945364657079
104,-0.18167970906904135,0.11420594312766852,-0.11664329532846002,0.06790963623171237,0.008840383590574041,0.029656264752230876
105,-0.17274291377900391,0.10832595235297504,-0.11184754275556966,0.06643000258156534,0.00895314751492271,0.027388903309343182
106,-0.1638564496950421,0.10256497283068355,-0.10708772202817288,0.06480964031788128,0.009125947850587623,0.02523998796808752
107,-0.15503096710795905,0.09692947933332374,-0.10236949308509175,0.06305123706647342,0.009358274004153566,0.02321156554848841
108,-0.14627625535355243,0.09142506432717468,-0.09769802104242434,0.06115788600789129,0.00964940315667362,0.0213050758644745
109,-0.13760116302370545,0.08605637278497308,-0.09307793205822404,0.05913309468894418,0.009998392307036585,0.019521315868269606
110,-0.12901351631559482,0.08082703560510407,-0.08851326818053595,0.05698079381834836,0.010404070219817929,0.017860403115118495
111,-0.12052003551902418,0.075739601637278,-0.08400744117879227,0.05470534604650018,0.010865029277616123,0.016321738548346065
112,-0.1121262496418749,0.07079546831469097,-0.07956318535856466,0.05231155472937116,0.011379617237871786,0.014903968604750129
113,-0.10383640917368203,0.06599481089267012,-0.07518250935967608,0.04980467267652988,0.011945928894171898,0.013604946640327797
114,-0.09565339698732783,0.06133651029380349,-0.07086664693766881,0.047190410883286626,0.012561797642038408,0.01242169367633611
115,-0.08757863737886007,0.05681807955955437,-0.0666160067286326,0.04447494724696299,0.013224786949199707,0.011350358465684829
116,-0.079612003245428,0.052435588908359754,-0.062430120997388705,0.0416649352672856,0.013932181730347826,0.010386176879665032
117,-0.07175172140134345,0.04818358940021439,-0.058307593369034016,0.038767512730904674,0.01468097962637871,0.009523430615009265
118,-0.06399427603225993,0.04405503520773746,-0.054246045543841714,0.03579031038003616,0.01546788218811701,0.00875540522128715
119,-0.05633431028747454,0.040041204493725946,-0.05024206299552042,0.03274146056522875,0.016289285964525557,0.00807434744863289
120,-0.048764526010352194,0.03613161889519112,-0.04629113965283216,0.02962960588225555,0.017141273495397735,0.007471421915808296
121,-0.04127558160686773,0.03231396161387956,-0.04238762156456677,0.026463907793128683,0.01801960420853571,0.0069366670985975265
122,-0.03385598805227347,0.028573994113279433,-0.03852464954787588,0.023254055231240578,0.01891970522141101,0.0064589506385376305
123,-0.02649200303588506,0.024895471422110793,-0.03469410081996416,0.020010273190627315,0.019836662047310716,0.006025923971980207
124,-0.019167523243990292,0.021260056044300257,-0.030886529613138813,0.01674333129935751,0.020765209205967528,0.005623976279489518
125,-0.011863974780877695,0.01764723047544048,-0.027091106773216855,0.013464552377045524,0.021699720738673045,0.0052381877555717216
126,-0.0045614665901998475,0.01403580028327922,-0.023297509417686657,0.010183977306437386,0.022631418649570356,0.004858182265294886
127,0.002755897706558541,0.010409929324585732,-0.01950242457969914,0.0069047497061170415,0.023540720549365013,0.004495790699040936
128,0.010101066817882476,0.006756645479141343,-0.015704894261068247,0.0036284798722146516,0.02440678605192853,0.004167364527840445
129,0.0174849945952395,0.0030645185180339096,-0.011904509041350875,0.00035704630242844315,0.025210421941536443,0.0038879195808186884
130,0.02491673308136827,-0.0006764052063369386,-0.00810137668452221,-0.002907424288558058,0.025934027977496443,0.0036711812115155507
131,0.032403523931443856,-0.0044746669916304604,-0.004296091350341591,-0.006162576532452446,0.026561543429232892,0.003529628838830734
132,0.03995088820712028,-0.008337458938310172,-0.0004897034104081044,-0.00940584554952223,0.02707839434182968,0.0034745398625959933
133,0.04756271454344696,-0.0122706860237638,0.0033163101310927368,-0.012634475669555834,0.027471441532030738,0.0035160329537729518
134,0.0552413456886664,-0.01627902709779938,0.007120074611953131,-0.01584553873161787,0.027728929314697948,0.003663110719276663
135,0.06298766341688228,-0.02036599479951484,0.01091934608181594,-0.019035951962595443,0.02784043495972688,0.0039237017414257
136,0.07080117181361184,-0.02453399439554571,0.014711539067358892,-0.02220249543453945,0.027796818879419982,0.004304701992017934
137,0.07868007893420564,-0.028784381539683435,0.018493753732785834,-0.0253418291007958,0.027590175546317708,0.004812015621032506
138,0.08662137683515142,-0.033117518953872827,0.022262802435630946,-0.028450509410932134,0.02721378514148698,0.0054505951199577685
139,0.09462091997825123,-0.037532832030582886,0.02601523567787062,-0.03152500550445636,0.026662065933268086,0.006224480859744752
140,0.10267350200767528,-0.04202886335655265,0.02974736745234602,-0.03456171498332722,0.025930527386477498,0.007136840003388156
141,0.11077293089989199,-0.04660332615791185,0.03345529998449459,-0.03755697926325868,0.025015724002070472,0.00819000479313109
142,0.11891210248647582,-0.05125315666667862,0.03713494786939253,-0.040507098503817174,0.023915209887260147,0.009385510212297943
143,0.12708307234979183,-0.055974565408629606,0.04078206160410652,-0.04340834611731087,0.022627494056093544,0.010724131021752459
144,0.1352771260915538,-0.06076308741254682,0.044392250515354115,-0.04625698285647212,0.0211519964604876,0.012205918170981045
145,0.1434848479742617,-0.06561363134083903,0.04796100508247586,-0.04904927048093283,0.019489004751720107,0.013830234583803447
146,0.15169618793551604,-0.07052052754153892,0.05148371865571577,-0.051781485002492966,0.01763963177238015,0.015595790318708502
147,0.15990052697520657,-0.0754775750216744,0.0549557085698123,-0.05444992950918082,0.0156057737787757,0.017500677103816753
148,0.168086740915579,-0.08047808734201578,0.05837223665289876,-0.05705094656810744,0.013390069393798387,0.01954240224646775
149,0.17624326253417738,-0.0855149374331971,0.06172852913071303,-0.059580930207112415,0.010995859290246546,0.02171792191743538
150,0.184358142069664,-0.09058060133321405,0.06501979592611895,-0.06203633747520387,0.008427146604606084,0.0240236738097665
151,0.1924191061005152,-0.09566720084629554,0.06824124935393444,-0.06441369958179022,0.0056885580812874315,0.026455609172248595
152,0.20041361479659364,-0.10076654512315092,0.07138812221107232,-0.0667096326147053,0.0027853059473229025,0.029009224217501184
153,0.20832891754359734,-0.10587017116259279,0.07445568526198937,-0.06892084783702629,-0.0002768494824812451,0.031679590904694355
154,0.21615210694038484,-0.1109693832345337,0.07743926411944513,-0.07104416156268384,-0.0034916364699326685,0.03446138709689256
155,0.22387017116917834,-0.11605529122435948,0.08033425552057105,-0.0730765046108659,-0.0068523077873852145,0.03734892609302576
156,0.23147004473864002,-0.121118847898676,0.08313614299824917,-0.07501493133921353,-0.010351675921211723,0.040336185534484925
157,0.23893865759983018,-0.12615088509243277,0.08584051194780085,-0.07685662825581055,-0.01398214754482019,0.04341683568634458
