ID,u1,u2,u3,u4,u5,u6
0,196.68178057990247,207.7647425014273,186.49928245170307,214.31435135434967,201.73597765909383,192.5820208617302
1,196.03095612666965,209.0953979424634,186.18627970313653,213.5348905476699,201.8647520186044,193.0729691749617
2,195.37720573385235,210.42878091963618,185.87201606546972,212.75844267461227,201.9932432058209,193.56403910201234
3,194.7178920905351,211.7672698889607,185.555358626513,211.98788369355833,202.1211747856732,194.05528898340026
4,194.05068108202812,213.1128782030102,185.23530883848505,211.22594247987843,202.24827782291734,194.5467117150784
5,193.37352914025917,214.46727112175745,184.91099683227955,210.47520340133843,202.37429104029673,195.0382386184001
6,192.6846708010402,215.83178252613257,184.58167582557587,209.738108889599,202.49896096906184,195.52974323456652
7,191.98260646821026,217.2074313342977,184.2467166247938,209.01696200780685,202.6220420918489,196.0210450435552
8,191.266090384653,218.59493762063835,183.90560222089178,208.31392901427796,202.7432969779172,196.51191310753052
9,190.53411881019025,219.99473843747143,183.5579224790094,207.6310419222733,202.862496410745,197.00206963873546
10,189.7859184063505,221.40700333946978,183.20336892195357,206.97020105586665,202.97941950798446,197.4911934918648
11,189.02093482801317,222.8316496108039,182.84172960752852,206.33317760190403,203.09385383377506,197.97892358092022
12,188.23882152192806,224.2683571949998,182.4728840997099,205.72161615805607,203.20559550341582,198.4648622205464
13,187.43942873211043,225.71658332751375,182.09679853366234,205.13703727696213,203.31444928039633,198.94857839184894
14,186.62279271211108,227.17557687102408,181.7135207746014,204.5808400064663,203.42022866578642,199.429610932694
15,185.78912514416243,228.64439235343912,181.323175670499,204.0543044259463,203.52275597998465,199.90747165248882
16,184.93880276519945,230.12190370862214,180.92596039863298,203.55859417873356,203.62186243682535,200.38164837144453
17,184.07235719975642,231.60681771983292,180.52213990598017,203.09475900062634,203.71738821004467,200.85160788431975
18,183.19046499973888,233.0976871658861,180.11204244345382,202.66373724449446,203.8091824921052,201.31679884864633
19,182.29393789107107,234.59292367002598,179.6960551939846,202.26635840097634,203.89710354537925,201.7766545974361
20,181.38371322721864,236.09081025151846,179.27461999444543,201.90334561526825,203.98101874569105,202.23059587636965
21,180.46084464958707,237.5895135799592,178.84822915142038,201.5753182000055,204.0608046182175,202.67803350546603
22,179.52649295479532,239.0870959322985,178.41742135081736,201.28279414423616,204.13634686574784,203.11837096523442
23,178.58191716882467,240.5815268525836,177.9827776613246,201.02619261848633,204.20754038930187,203.55100690730728
24,177.62846582804355,242.07069451441652,177.54491763171112,200.80583647591828,204.2742893011071,203.97533758955475
25,176.66756846710706,243.55241678612967,177.10449548197096,200.62195474958014,204.33650692993442,204.39075923568083
26,175.70072731373264,245.02445199867736,176.66219638831151,200.47468514574808,204.39411581879259,204.79667031930097
27,174.72950919035054,246.48450941624452,176.21873286198542,200.36407653336047,204.44704771498158,205.19247377250107
28,173.75553762263007,247.93025940957182,175.7748412219665,200.29009142954425,204.49524355250452,205.57757911887836
29,172.7804851548811,249.35934333199776,175.3312781614696,200.2526084812335,204.53865342683835,205.9514045310633
30,171.806065872331,250.76938309821702,174.88881740831425,200.25142494288005,204.5772365620633,206.3133788127234
31,170.83402813027715,252.157990465756,174.4482464791321,200.28625915025634,204.61096127035097,206.66294330504837
32,169.8661474901145,253.5227760191648,174.01036352741858,200.35675299035034,204.63980490381152,206.9995537177168
33,168.90421986223902,254.86135785692585,173.57597428542775,200.4624743673526,204.6637537986989,207.32268188434443
34,167.95005485582607,256.1713699810791,173.145889099912,200.6029196647357,204.6828032119756,207.63181744241382
35,167.0054693354846,257.4504703895649,172.72092006170465,200.77751620342542,204.69695725023553,207.92646943768568
36,166.07228118478653,258.69634887128154,172.30187822914698,200.98562469606452,204.70622879098588,208.20616785309159
37,165.15230327667155,259.906734503862,171.8895709453591,201.2265416973682,204.71063939628786,208.47046506210833
38,164.24733765072747,261.0794028541654,171.48479924935452,201.49950205057218,204.71021921875578,208.71893720661365
39,163.35916989734585,262.2121828814858,171.08835538099865,201.8036813299725,204.7050068999153,208.95118549922367
40,162.48956374875303,263.30296354347837,170.70102037981124,202.13819827955783,204.69504946092002,209.1668374501116
41,161.64025587691677,264.34970010480095,170.32356177761267,202.50211724773374,204.68040218562712,209.36554801830817
42,160.81295089832798,265.3504201484737,169.95673138501394,202.89445061813888,204.66112849603158,209.5470006874836
43,160.00931658565835,266.30322928995406,169.601263171751,203.31416123655407,204.63729982005913,209.71090846621075
44,159.23097928629264,267.20631659392984,169.2578712408622,203.7601648339026,204.60899545171787,209.85701481271036
45,158.47951954773717,268.0579596938276,168.92724789671047,204.23133244534316,204.576302403609,209.98509448407725
46,157.75646794990342,268.85652961403866,168.6100618068488,204.72649282545532,204.53931525179559,210.09495430998817
47,157.0633011442667,269.60049529486173,168.30695625772952,205.244434859516,204.49813597303083,210.1864338908917
48,156.40143809990084,270.2884278201617,168.0185475042581,205.7839099708695,204.4528737743445,210.25940622067867
49,155.77223655638778,270.9190043477458,167.74542321319007,206.34363452438836,204.40364491498846,210.31377823383514
50,155.17698968360295,271.4910117424557,167.4881410003723,206.92229222602757,204.35057252074057,210.34949127707608
51,154.61692294837584,272.00334991197735,167.24722706182797,207.5185365184699,204.2937863905678,210.36652150546115
52,154.09319118802594,272.4550348453661,167.02317489868548,208.130992972864,204.2334227956475,210.36488020299151
53,153.60687589077438,272.84520135429,166.81644413595106,208.75826167665454,204.16962427074805,210.3446140276887
54,153.15898268303064,273.1731055169888,166.6274594351256,209.3989196175043,204.10253939796755,210.30580518115443
55,152.75043902355492,273.43812682495,166.45660950066494,210.05152306330854,204.0323225828319,210.24857150261224
56,152.38209210449574,273.6397700323014,166.3042461802844,210.71460993830166,203.95913382275114,210.1730664874308
57,152.0547069593032,273.77766670792084,166.1706836591069,211.38670219525574,203.88313846783473,210.07947923012838
58,151.7689647775173,273.8515764902619,166.05619774765518,212.0663081837714,203.80450697406556,209.96803429185906
59,151.5254614264321,273.86138804489684,165.9610252636877,212.75192501466066,203.7234146488326,209.83899149238033
60,151.32470617963477,273.80711972477627,165.88536350787845,213.44204092042222,203.64004138882245,209.6926456265025
61,151.16712065242066,273.68891993320483,165.8293698333409,214.13513761180866,203.55457141026935,209.52932610501907
62,151.05303794408326,273.5070671895347,165.79316130899534,214.82969263048574,203.4671929715643,209.34939652011929
63,150.9827019870798,273.2619698975746,165.7768144767806,215.52418169778412,203.37809808822246,209.1532541352816
64,150.95626710307238,272.95416581671634,165.78036520270922,216.2170810595429,203.2874822402098,208.94132929964917
65,150.9737977658442,272.5843212357776,165.8038086217667,216.90686982704563,203.19554407162803,208.71408478688653
66,151.03526857109156,272.15322984956185,165.84709917665478,217.59203231404808,203.10248508275845,208.47201505851777
67,151.14056441309086,271.6618113381345,165.9101507503781,218.2710603698988,203.00850931446465,208.2156454517466
68,151.2894808682415,271.1111096488158,165.99283689267537,218.94245570875088,202.91382302495364,207.94553129175742
69,151.48172478548378,270.50229098089085,166.09499114029387,219.6047322348668,202.81863435889608,207.66225692849838
70,151.71691508359237,269.8366414730358,166.21640743110808,220.25641836401482,202.72315300890494,207.36643469794558
71,151.9945837553453,269.1155645934614,166.3568406120822,220.8960593409579,202.6275898693731,207.05870380784907
72,152.31417707856815,268.3405782327721,166.5160070410765,221.52221955303438,202.5321566826695,206.73972914796016
73,152.6750570340538,267.5133114995432,166.69358528249745,222.13348483983114,202.43706567769414,206.4102000247404
74,153.07650293035758,266.63550121861374,166.88921689679182,222.72846479894872,202.34252920079186,206.07082882055192
75,153.5177132354678,265.70898813209647,167.10250732378472,223.30579508785868,202.24875933902476,205.7223495773296
76,153.99780761535152,264.73571280310466,167.33302685986132,223.86413972185323,202.15596753580334,205.3655165047342
77,154.51582917937628,263.717711222195,167.58031172899265,224.40219336808656,202.06436419887646,205.00110241278762
78,155.07074693260648,262.65711011652786,167.8438652476051,224.91868363570882,201.97415830067996,204.62989706898932
79,155.66145843497588,261.55612196174394,168.12315908329393,225.412373362092,201.885556971044,204.25270547991428
80,156.2867926673349,260.4170396965576,168.4176346073805,225.88206289514807,201.79876508225925,203.87034609729264
81,156.94551310437407,259.2422311400669,168.72670434131368,226.32659237173897,201.71398482650181,203.48364894857065
82,157.63632099442185,258.03413311178053,169.0497534969146,226.74484399217937,201.6314152856165,203.09345369195333
83,158.35785884611894,256.79524525436125,169.3861416104659,227.13574429083081,201.55125199325948,202.70060759592852
84,159.1087141219675,255.52812355908563,169.73520427064435,227.49826640278854,201.4736864893992,202.30596344327242
85,159.88742313875548,254.23537359402172,170.09625494029757,227.83143232666035,201.3989058671761,201.91037735953688
86,160.692475174857,252.91964343492185,170.46858687206463,228.13431518343754,201.3270923121212,201.51470656601785
87,161.52231678440788,251.58361629883316,170.8514751178406,228.40604147145785,201.25842263373335,201.1198070572057
88,162.37535631835624,250.23000288042468,171.2441786320846,228.64579331746103,201.1930677894152,200.72653120271679
89,163.249968652389,248.8615333910308,171.64594246897218,228.8528107237359,201.1311924007679,200.33572527370666
90,164.14450012173364,247.48094930041162,172.0560000733913,229.02639381136032,201.07295426224456,199.94822689376483
91,165.0572736628353,246.09099478122994,172.47357566578222,229.16590505953232,201.01850384216243,199.564862414291
92,165.9865941619093,244.69440785624522,172.89788672082148,229.27077154099467,200.96798377607385,199.1864442143527
93,166.93075401036916,243.29391124822365,173.32814653994933,229.34048715355016,200.9215283524958,198.81376792502465
94,167.88803886712984,241.89220293256557,173.76356691774146,229.37461484767036,200.87926299099843,198.4476095782095
95,168.8567336277867,240.49194639264903,174.20336090212433,229.3727888501955,200.841303712652,198.08872267994016
96,169.8351286006697,239.09576057789045,174.64674564843455,229.334716884127,200.8077566028329,197.73783520816357
97,170.82152588977286,237.70620956452183,175.09294536732187,229.26018238451226,200.77871726638818,197.39564653500608
98,171.8142459845594,236.32579191908468,175.54119436649648,229.1490467104212,200.75427027515877,197.06282427352025
99,172.81163455664216,234.95692976464028,175.9907401863197,229.00125135301522,200.73448860786158,196.7400010489132
100,173.81206946333953,233.60195754969746,176.44084682923884,228.81682013970823,200.71943308233045,196.42777119425665
101,174.81396795810656,232.26311051985616,176.89079808306596,228.59586143441976,200.70915178011535,196.12668737067807
102,175.81579410784167,230.9425128921685,177.3399009381002,228.3385703339206,200.70367946344095,195.8372571120338
103,176.81606641706898,229.6421657322157,177.7874890980944,228.04523086026973,200.70303698452332,195.5599392940634
104,177.8133656589954,228.3639345339026,178.23292658506523,227.71621814934457,200.70723068724593,195.29514052802566
105,178.806342913444,227.10953650196802,178.67561143794742,227.35200063546222,200.7162518011938,195.04321147881592
106,179.793727811662,225.88052753721252,179.11497950509172,226.95314223209385,200.730075828047,194.80444310756528
107,180.77433698800456,224.6782889244424,179.55050833060693,226.5203045086704,200.74866192033227,194.57906283872094
108,181.74708273849416,223.50401372313058,179.98172113454544,226.05424886348095,200.77195225253388,194.36723065160828
109,182.71098188625496,222.35869286079426,180.40819088693317,225.5558386926632,200.79987138456292,194.1690350964744
110,183.6651648538228,221.24310092908888,180.82954447564285,225.02604155528576,200.83232561758544,193.98448923501317
111,184.60888494233063,220.15778168261932,181.2454669681115,224.46593133452313,200.8692023422093,193.81352650537178
112,185.54152781756946,219.1030332404674,181.65570596690173,223.87669039492215,200.91036937902973,193.6559965116389
113,186.46262120292423,218.07889299043632,182.06007605910682,223.2596117357612,200.95567431153376,193.5116607378142
114,187.37184477918578,217.0851221960114,182.45846335959982,222.6161011405013,201.00494381136306,193.38018818625957
115,188.26904029123776,216.12119030603827,182.85083014812622,221.94767932232935,201.05798295593598,193.26115094063164
116,189.1542218616191,215.18625896711677,183.23721960024105,221.25598406579337,201.11457453842783,193.1540196532961
117,190.02758651096184,214.27916573871238,183.61776061208917,220.54277236453038,201.1744783701103,193.05815895722327
118,190.88952488530447,213.398407510984,183.99267271903,219.80992255508582,201.23743057504936,192.97282280236524
119,191.74063219028062,212.5421236253282,184.3622711081058,219.05943644682554,201.30314287716203,192.89714971651478
120,192.5817193321831,211.70807869764076,184.72697172435394,218.2934414479398,201.37130187963183,192.83015799064538
121,193.4138242659036,210.89364514429428,185.08729647096305,217.51419268753938,201.44156833668285,192.77074078873306
122,194.2382235497474,210.09578541083295,185.443878503273,216.72407513384383,201.51357641771287,192.71766118205974
123,195.0564441071239,209.31103390338365,185.7974676166187,215.92560570846211,201.58693296378488,192.6695471079978
124,195.87027519511219,208.53547862278407,186.14893572801796,215.12143539676492,201.6612167364774,192.6248862532766
125,196.68178057990247,207.7647425014273,186.49928245170307,214.31435135434967,201.73597765909383,192.5820208617302
126,197.4931703788667,206.9943040604329,186.84946066913662,213.50682518312306,201.81051349196562,192.5397980294772
127,198.30621085628428,206.22078492257828,187.19977619264316,212.69963069689032,201.8832576439492,192.49953229989342
128,199.1223407575425,205.44141770221682,187.55031745282446,211.89316427623743,201.9525428841543,192.4630405030934
129,199.94277717724884,204.6537639505139,187.90112224233684,211.08788832059776,202.01683375532292,192.4319910645354
130,200.7685258979298,203.85570022264812,188.2521806137364,210.28432632897034,202.0747222381997,192.40790902350173
131,201.60039154793822,203.04540437511884,188.60343772150694,209.4830580843194,202.12492347433863,192.3921809820923
132,202.4389875785689,202.2213420931605,188.95479660827002,208.68471494165607,202.16627154734638,192.3860599847329
133,203.284746060383,201.3822536482637,189.3061209351778,207.88997521980164,202.19771532256246,192.390670328197
134,204.1379272987407,200.5271408858028,189.65723765648798,207.09955969683253,202.21831434517583,192.40701230214185
135,204.9986292685425,199.65525444277017,190.0079396383215,206.31422720920727,202.22723479677813,192.4359668601584
136,205.8667968681791,198.7660811956169,190.35798822160237,205.5347703545749,202.22374551035358,192.47830022133533
137,206.7422309926895,197.85933193820085,190.70711572918023,204.76201129826566,202.20721404370542,192.53466840233693
138,207.62459742612793,196.93492928984045,191.05502791713516,203.99679768346286,202.17710281131895,192.6056216799953
139,208.51343555313903,195.99299583347567,191.40140637026497,203.23999864505691,202.13296527466144,192.69160898441606
140,209.4081668897417,195.03384248393544,191.745910841755,202.492500927181,202.0744421909182,192.79298222259868
141,210.30810343332132,194.05795708631211,192.08818153703027,201.75520510442863,202.00125792016564,192.9100005325701
142,211.21245583183065,193.06599324444187,192.42784134179007,201.0290219067527,201.9132167909808,193.0428344680331
143,212.1203413721991,192.05875937949236,192.76449799422522,200.31486864804657,201.81019952448747,193.19157011352806
144,213.03079178795042,191.03720801865668,193.0977462014173,199.61366575840685,201.692159716839,193.356213130109
145,213.94276088602908,190.00242531395435,193.42716969992085,198.92633342007807,201.5591203801376,193.53669273153372
146,214.8551319928351,188.95562079113836,193.7523432605276,198.25378830707865,201.41117054179043,193.7328655909676
147,215.7667252194674,187.89811732870947,194.07283463721345,197.59694042850933,201.24846190230204,193.94451967820186
148,216.67630454617546,186.83134136703666,194.38820646026758,196.95669007554278,201.07120555150388,194.17137802738532
149,217.58258472601972,185.75681334758463,194.6980180736043,196.3339248720954,200.87966874321972,194.4131024352706
150,218.48423800774043,184.67613838224767,195.00182731625713,195.7295169291806,200.6741717283685,194.66929708997407
151,219.37990067783502,183.5909971527903,195.29919224805548,195.14432010294394,200.455084646503,194.93951213024985
152,220.26817942184374,182.50313704039448,195.5896728194836,194.57916735638022,200.22282447578584,195.22324713527792
153,221.14765750484415,181.41436348531352,195.87283248572209,194.034868224732,199.9778520414015,195.51995454496603
154,222.01690077115387,180.32653157663282,196.14823976487185,193.51220638457013,199.72066908240538,195.82904301076584
155,222.87446346324202,179.24153787213663,196.4154697403604,193.0119373265561,199.45181537700918,196.14988067700287
156,223.7188938598489,178.16131244828244,196.6741055075307,192.5347861318859,199.17186592630307,196.48179839272055
157,224.54873973331445,177.087811180281,196.9237395644124,192.08144535241587,198.8814281964144,196.82409285403827
158,225.36255362611516,176.02300825228366,197.1639751466755,191.65257299447023,198.581139419103,197.17602967702348
159,226.1588979466091,174.9688888976762,197.3944275067665,191.2487906063306,198.27166395079325,197.53684640107758
160,226.9363498839902,173.9274423694792,197.61472513722697,190.8706814694066,197.95369069004252,197.90575542283608
161,227.69350614245025,172.90065514085498,197.82451093819452,190.51878889308935,197.62793055344633,198.2819468605826
162,228.42898749455009,171.89050433572152,198.0234433290863,190.1936146132856,197.29511400998024,198.66459134917702
163,229.14144315379855,170.8989513894727,198.21119730446475,189.89561729463438,196.95598867377814,199.05284276549727
164,229.82955496644072,169.92793593980548,198.3874654340862,189.62521113640514,196.61131695534735,199.44584088439575
165,230.49204142245407,168.97936994765325,198.5519588071313,189.38276458207764,196.2618737712202,199.84271396516903
166,231.1276614857535,168.05513204822634,198.70440792061856,189.16859913260373,195.9084443120422,200.24258126854215
167,231.73521824360452,167.15706213215904,198.84456351199972,188.98298826335068,195.5518218690971,200.64455550416656
168,232.3135623752451,166.28695615676307,198.972197335938,188.8261564447268,195.192805719268,201.04774520863225
169,232.8615954397165,165.44656118738777,199.0871028852686,188.69827826648796,194.83219906843573,201.4512570539937
170,233.37827298290154,164.63757066888712,199.18909605614166,188.5994776657269,194.47080705331345,201.85419808681016
171,233.8626074637724,163.86161992719317,199.2780157573477,188.52982725854335,194.1094348017178,202.25567789769943
172,234.3136709998463,163.1202819009964,199.35372446382544,188.48934777539662,193.7488855512771,202.6548107214062
