ID,u1,u2,u3,u4,u5,u6
0,-0.010545755360780174,0.01647074844374441,-0.02500717548296938,0.012428817578811258,0.020253072689428164,0.004656166893841518
1,-0.015752350986642738,0.022292365998277386,-0.028137202968634534,0.009505839553762163,0.02175544021705128,0.008583753399693805
2,-0.020982354129181258,0.02812591652340829,-0.03127983934530287,0.006594160029795959,0.023254504067910464,0.01251231281609877
3,-0.02625686327571941,0.03398180576420301,-0.03444641373486995,0.0037045638508437784,0.024747039166187257,0.016442311867202075
4,-0.031594551343775035,0.0398688421381696,-0.037646911615149437,0.0008472842995440599,0.02622990793403568,0.020373693720627084
5,-0.03701176687792679,0.04579431115768878,-0.04089003167720451,-0.0019679872449808733,0.02770006213679499,0.024305908947200805
6,-0.04252263359167835,0.05176404855182998,-0.04418324174424115,-0.004732091664003735,0.029154544639054703,0.028237945876532167
7,-0.04813914825431792,0.05778251208755236,-0.047532833752062076,-0.007436392470724362,0.030590491071570525,0.03216836034844156
8,-0.053871276922775824,0.06385285209029273,-0.05094397779108231,-0.010072766196457639,0.03200513140903394,0.03609530486024426
9,-0.05972704951847796,0.06997698066393748,-0.0544207752099061,-0.012633592791475023,0.03339579145869176,0.04001655710988361
10,-0.06571265274919602,0.07615563961018035,-0.05796631078046438,-0.015111746040500085,0.03475989425981879,0.043929547934918545
11,-0.07183252137589469,0.0823884670472671,-0.061582703924714655,-0.017500583992859975,0.03609496139404239,0.047831388647361806
12,-0.0780894278245754,0.08867406272812411,-0.0652711590029012,-0.01979393940728974,0.03739861420651791,0.05171889776437111
13,-0.08448457014311656,0.09501005205787261,-0.06903201466337675,-0.021986110211392074,0.03866857493795717,0.05558862713479157
14,-0.09101765830311132,0.10139314881073042,-0.07286479225398607,-0.02407184997575129,0.03990266776750834,0.0594368874615519
15,-0.09768699884670057,0.10781921654629606,-0.07676824329500978,-0.026046358402701364,0.04109881976648744,0.06325977321991072
16,-0.10448957787840446,0.1142833287252219,-0.08074039601367031,-0.027905271829749168,0.04225506176296234,0.06705318697155621
17,-0.11142114240194861,0.12077982752426908,-0.0847786009401984,-0.02964465374765124,0.043369529117187944,0.07081286307455803
18,-0.11847628000208887,0.12730238135075161,-0.08887957556546178,-0.03126098533314581,0.04444046240789418,0.07453439078917051
19,-0.12564849687143148,0.13384404105636366,-0.09303944806015402,-0.032751155996338654,0.045466208029424804,0.07821323677948894
20,-0.13293029418225094,0.14039729485039332,-0.09725380005554574,-0.034112453942744037,0.04644521869972895,0.08184476701095733
21,-0.14031324280330343,0.14695412191232143,-0.10151770848579622,-0.035342556749979326,0.04737605387920407,0.08542426804372816
22,-0.14778805636163744,0.1535060447038059,-0.10582578649182625,-0.03643952195911443,0.04825738010039132,0.08894696772187538
23,-0.15534466264940258,0.16004417998005327,-0.11017222338675403,-0.03740177768067632,0.049087971208521874,0.09240805525845835
24,-0.16297227337565168,0.16655928850057233,-0.11455082368288896,-0.03822811321530639,0.0498667085129163,0.09580270071643804
25,-0.1706594522631436,0.1730418234393173,-0.11895504518029043,-0.03891766968907445,0.0505925808492349,0.09912607388544681
26,-0.17839418149013891,0.17948197749421346,-0.1233780361168848,-0.03946993070344468,0.05126468455258015,0.10237336255440765
27,-0.18616392647719562,0.18586972869606977,-0.12781267138014576,-0.03988471299989821,0.05188222334145187,0.10553979018000859
28,-0.19395569901895937,0.19219488491687675,-0.13225158778033494,-0.04016215713920901,0.05244450811255291,0.10862063295102675
29,-0.2017561187609513,0.19844712707749013,-0.13668721838530393,-0.0403027181953744,0.0529509566464475,0.11161123624850633
30,-0.20955147302135205,0.2046160510546995,-0.1411118259168576,-0.040307156464199856,0.05340109322407166,0.11450703050178723
31,-0.21732777495778285,0.2106912082876825,-0.14551753520867877,-0.04017652818653866,0.05379454815409479,0.11730354644038687
32,-0.22507082007908386,0.21666214508384596,-0.14989636472581436,-0.03991217628618621,0.054131057211134315,0.11999642974173441
33,-0.23276624110208796,0.22251844062405046,-0.1542402571457224,-0.039515721122427794,0.05441046098482066,0.12258145507475549
34,-0.24039956115339148,0.22824974366722128,-0.1585411090008799,-0.038989051257241114,0.05463270413971533,0.12505453953931045
35,-0.24795624531612323,0.23384580795434629,-0.16279079938295363,-0.03833431423715461,0.05479783458608101,0.12741175550148554
36,-0.2554217505217078,0.23929652631185683,-0.16698121770853022,-0.03755390738975806,0.05490600256150191,0.12964934282473262
37,-0.2627815737866276,0.2445919634543965,-0.17110429054640894,-0.036650468634869315,0.05495745962335824,0.1317637204968667
38,-0.2700212987941802,0.24972238748697362,-0.17515200750645477,-0.03562686731035436,0.05495255755215073,0.13375149765290928
39,-0.2771266408212333,0.2546783001065004,-0.17911644619001346,-0.034486195012603194,0.05489174716567835,0.13560948399378936
40,-0.2840834900099759,0.2594504655027179,-0.18298979620188757,-0.033231756451658157,0.054775577044066825,0.13733469960089273
41,-0.2908779529846659,0.26402993795850416,-0.18676438222387343,-0.031867060320998564,0.054604692165649726,0.13892438414646535
42,-0.29749639281337603,0.2684080881495724,-0.19043268614986059,-0.030395810181979233,0.05437983245370187,0.14037600549986862
43,-0.30392546731473313,0.2725766281435491,-0.19398736828249025,-0.028821895362922234,0.05410183123402301,0.1416872677296861
44,-0.3101521657096589,0.27652763509844314,-0.197421287591378,-0.027149381872865308,0.053771613603375346,0.142856118501683
45,-0.3161638436181026,0.28025357366049586,-0.20072752103289515,-0.02538250332996317,0.05339019470877154,0.14388075587261806
46,-0.3219482564007725,0.2837473170614191,-0.20389938193151208,-0.023525651904542533,0.05295867793761494,0.14475963447990547
47,-0.3274935908458664,0.2870021669150201,-0.20693043742270478,-0.02158336927681498,0.05247825301869291,0.14549147112713368
48,-0.3327884952007933,0.2900118717132075,-0.20981452495741898,-0.01956033760923942,0.05195019403401918,0.1460752497654293
49,-0.3378221075488979,0.29277064402138786,-0.21254576786809934,-0.01746137053354363,0.05137585734153194,0.14651022587068108
50,-0.34258408253117634,0.2952731763732438,-0.21511858999627692,-0.015291404152396604,0.05075667940864004,0.14679593021660853
51,-0.34706461641299335,0.2975146558649008,-0.21752772938172013,-0.013055488055737918,0.05009417455662413,0.14693217204368902
52,-0.3512544704957925,0.2994907774484765,-0.2197682510131453,-0.010758776351760035,0.04938993261588759,0.1469190416239322
53,-0.35514499287380497,0.30119775592501863,-0.22183555864048934,-0.008406518712545441,0.048645616492060395,0.14675691222150966
54,-0.35872813853575486,0.302632336636826,-0.2237254056487441,-0.0060040514343588924,0.04786295964295462,0.14644644144923535
55,-0.3619964878115607,0.30379180485915613,-0.2254339049933506,-0.0035567885125929455,0.04704376346637218,0.14598857202089788
56,-0.364943263164034,0.30467399389131855,-0.22695753819715597,-0.0010702127313687582,0.04618989459876327,0.14538453189944645
57,-0.3675623443255745,0.3052772918471537,-0.22829316340893085,0.0014501332322090499,0.04530328212473861,0.14463583384102707
58,-0.3698482817798616,0.30560064714489577,-0.2294380225234481,0.003998655689142705,0.04438591469743164,0.14374427433487236
59,-0.37179630858854323,0.3056435726964236,-0.23038974736312304,0.006569718804977476,0.04343983756971381,0.14271193193904264
60,-0.37340235056292187,0.305406148795896,-0.23114636492121549,0.009157653451583259,0.04246714953626196,0.14154116501201996
61,-0.3746630347806347,0.30488902470777113,-0.23170630166659104,0.01175676604428244,0.04146999978647581,0.1402346088401526
62,-0.3755756964473341,0.3040934189542144,-0.23206838691004653,0.014361347364321542,0.04045058466824991,0.13879517216095416
63,-0.3761383841033616,0.3030211183018888,-0.23223185523219395,0.01696568136669041,0.039411144362595296,0.13722603308225279
64,-0.3763498631754209,0.30167447544813386,-0.2321963479729079,0.019564053973285866,0.03835395946911446,0.13553063439719337
65,-0.3762096178732463,0.3000564054065271,-0.23196191378233294,0.022150761851421064,0.03728134750232709,0.13371267829509226
66,-0.37571785143126746,0.2981703805918332,-0.2315290082334523,0.024720121177680354,0.036195659298848715,0.13177612046814224
67,-0.37487548469527315,0.29602042460433853,-0.23089849249621902,0.02726647638712043,0.03509927533542084,0.1297251636139729
68,-0.37368415305406805,0.2936111047135691,-0.23007163107324627,0.0297842089078158,0.033994601957792414,0.12756425033405938
69,-0.3721462017161298,0.29094752304139726,-0.22905008859706139,0.03226774588075043,0.0328840675204542,0.125298055427987
70,-0.37026467933126106,0.2880353064445318,-0.22783592568891925,0.03471156886505555,0.03177011843722455,0.1229314775835646
71,-0.3680433299572376,0.2848805950963935,-0.22643159387917783,0.03711022252859214,0.030655215142686265,0.12046963046279258
72,-0.3654865833714549,0.2814900297683779,-0.22483992958923482,0.039458323323878886,0.029541827964477352,0.11791783318368121
73,-0.3625995437275696,0.2778707378105013,-0.22306414717502543,0.04175056814936673,0.028432432906431437,0.1152816001979231
74,-0.3593879765571394,0.27403031783143494,-0.22110783103208176,0.043981742996057616,0.027329507342571557,0.11256663056441552
75,-0.35585829411625775,0.26997682307792203,-0.21897492676215272,0.04614673157947008,0.02623552562195558,0.10977879661863676
76,-0.3520175390771879,0.26571874351358304,-0.2166697314013868,0.048240523956949666,0.025152954584372444,0.10692413203787354
77,-0.3478733665649898,0.26126498659710307,-0.21419688271007348,0.05025822513032463,0.024084248986892154,0.10400881930230088
78,-0.3434340245391483,0.2566248567598095,-0.21156134752394912,0.05219506363390808,0.023031846841266024,0.10103917655191452
79,-0.33870833252019295,0.2518080335826297,-0.2087684091670608,0.054046400107845005,0.02199816466217991,0.09802164383931428
80,-0.33370565866132074,0.24682454867243953,-0.20582365392619495,0.05580773585680526,0.020985592626358074,0.09496276877834109
81,-0.3284358951650074,0.2416847612377927,-0.20273295658686313,0.057474721394021155,0.019996489642520987,0.09186919158856527
82,-0.3229094320446253,0.23639933236403998,-0.19950246503085384,0.059043164970672635,0.01903317833219237,0.0887476295356267
83,-0.3171371292310485,0.2309791979878304,-0.19613858389534092,0.060509041090615556,0.018097939921360717,0.08560486076742813
84,-0.31113028702426015,0.22543554057099968,-0.19264795729355663,0.061868499010457045,0.017193009042990703,0.0824477075461793
85,-0.30490061488995607,0.21977975947384498,-0.18903745059702437,0.06311787122497631,0.016320568450387818,0.07928301887629496
86,-0.2984601986011438,0.21402344002778306,-0.18531413127935353,0.06425368193789072,0.015482743641413999,0.07611765252814279
87,-0.29182146572473694,0.2081783213073951,-0.18148524882159384,0.0652726555179669,0.014681597393555845,0.07295845645764559
88,-0.28499714945315024,0.20225626260185792,-0.17755821367915378,0.06617172494047885,0.013919124209844091,0.06981224962173416
89,-0.2780002507808881,0.1962692085857597,-0.17354057531027806,0.06694804021400969,0.013197244675625663,0.0666858021896532
90,-0.2708439990261309,0.19022915318930078,-0.1694399992660871,0.06759897679260113,0.012517799726186607,0.06358581515011863
91,-0.2635418106973174,0.18414810216788102,-0.16526424334217765,0.06812214397324623,0.011882544825228547,0.06051889931432808
92,-0.2561072467047255,0.1780380343710729,-0.16102113279178523,0.06851539327873002,0.011293144054194904,0.057491553714821564
93,-0.24855396791704668,0.17191086171097847,-0.15671853460050658,0.06877682682581315,0.010751164112451084,0.05451014340019711
94,-0.24089568906296135,0.16577838782997434,-0.1523643308225853,0.06890480567876389,0.01025806822831482,0.0515808766256759
95,-0.23314613097770645,0.1596522654678395,-0.14796639097875655,0.06889795818823313,0.009815209980940043,0.048709781439521316
96,-0.2253189711946424,0.1535439525282707,-0.1435325435156545,0.06875518831547628,0.00942382703305078,0.04590268166530864
97,-0.21742779288181713,0.14746466684478304,-0.13907054632678112,0.068475683941921,0.009085034774528877,0.04316517228004868
98,-0.20948603212352487,0.1414253396459954,-0.13458805633503512,0.06805892516407952,0.008799819876852244,0.04050259418816193
99,-0.20150692354686262,0.13543656772030122,-0.1300925981368031,0.06750469257380703,0.008569033758385192,0.037920008391305715
100,-0.19350344429328376,0.12950856427992635,-0.12559153170761153,0.06681307552390581,0.008393385960521804,0.03542216955405325
101,-0.18548825633514757,0.12365110852437072,-0.12109201916934048,0.06598448037907412,0.008273437434679176,0.033013498965424604
102,-0.1774736471372667,0.1178734939032372,-0.11660099061899806,0.06501963875220224,0.008209593740144239,0.030698056896270476
103,-0.1694714686634482,0.11218447507844365,-0.11212510901905592,0.06391961572601151,0.00820209815277212,0.02847951435250734
104,-0.16149307472803676,0.10659221358582394,-0.10767073414934772,0.06268581806004214,0.008251024684535757,0.026361124224205223
105,-0.15354925669244796,0.10110422219611004,-0.1032438856205258,0.06132000238298341,0.008356271013927885,0.02434569183052726
106,-0.14565017750670411,0.09572730797530465,-0.09885020494908264,0.05982428337035195,0.0085175513272151,0.02243554486052224
107,-0.13780530409596364,0.09046751404443548,-0.09449491669393084,0.05820114190751391,0.008734389070543302,0.020632502709767464
108,-0.13002333809204664,0.08533006003869636,-0.09018278865454554,0.05645343323805352,0.00900610961289533,0.018937845212866233
109,-0.1223121449099604,0.08031928126597487,-0.08591809113066831,0.054584395097486915,0.009331832819900798,0.017352280771795237
110,-0.11467868116941765,0.07543856656476378,-0.08170455524357165,0.052597655832321566,0.009710465538496749,0.01587591388010534
111,-0.10712892046135486,0.0706902948614595,-0.07754533031888516,0.05049724250446175,0.010140693992441718,0.014508212042974311
112,-0.09966777745944433,0.06607577042704488,-0.07344294033098275,0.048287588980957974,0.010620976088680345,0.013247972093111238
113,-0.09229903037660625,0.061595156833158804,-0.06939923940893175,0.04597354400910453,0.011149533634560449,0.012093285902513629
114,-0.08502524176651366,0.057247409607549926,-0.06541536640400197,0.043560379276879946,0.011724344465902536,0.011041505490076542
115,-0.07784767767009787,0.05303020758891741,-0.061491698518737786,0.04105379745873505,0.012343134485919727,0.010089207525053212
116,-0.07076622510704711,0.048939882981135774,-0.05762780399758957,0.038459940246725166,0.013003369614991267,0.009232157226368887
117,-0.0637793079123053,0.04497135010686676,-0.05382239387910831,0.03578539636698891,0.013702247651286747,0.008465271657786044
118,-0.0568838009175644,0.04111803286055499,-0.05007327280970003,0.03303720958157186,0.014436690042242517,0.0077825824189218795
119,-0.05007494247775518,0.03737179086081088,-0.046377288918941884,0.03022288667559575,0.01520333356689052,0.007177197732118112
120,-0.04334624534253528,0.03372284430217837,-0.04273028275646046,0.02735040542977435,0.01599852192903789,0.006641263925162899
121,-0.03668940587277131,0.030159697506287553,-0.039127035290369316,0.02442822257827265,0.01681829726130002,0.006165926309864456
122,-0.03009421160202086,0.02666906117239415,-0.03556121496727005,0.021465281751914422,0.01765839153998361,0.005741289456477894
123,-0.02354844714300891,0.02323577332730342,-0.03202532383381307,0.0184710214067329,0.01851421791082336,0.005356376863982437
124,-0.01703779843910247,0.019842718974680262,-0.028510642719820456,0.01545538273786845,0.019380861925569703,0.0049990900262129045
125,-0.010545755360780174,0.01647074844374441,-0.02500717548296938,0.012428817578811258,0.020253072689428164,0.004656166893841518
126,-0.004054636969066494,0.013100080264393965,-0.021505393308633824,0.00940059443671143,0.021122657406265677,0.004318384235817707
127,0.0024496868502742464,0.009715934036280016,-0.018002238073568433,0.006373615113338782,0.021971339179407356,0.003996258399147468
128,0.008978726060339948,0.006306202447198539,-0.014496825471755292,0.003349366035890422,0.02277966698179995,0.0037043240247470743
129,0.015542217417990667,0.0028602172834982786,-0.010988777576631581,0.00032958120224163556,0.023529727145434,0.003455928516283291
130,0.022148207183438462,-0.0006313115259144464,-0.0074781938626358735,-0.002683776266361293,0.024205092778996684,0.0032632721880138105
131,0.02880313238350568,-0.004176355858855119,-0.003965622784930678,-0.005688532183802275,0.02479077386728401,0.003137447856738418
132,0.03551190062855136,-0.007781628342422853,-0.0004520339172997545,-0.008682318968789737,0.025273168052374395,0.003088479877863093
133,0.04227796848306398,-0.011452640288846183,0.0030612093517778938,-0.011662592925743842,0.025640012096562026,0.003125362625575945
134,0.04910341838992566,-0.015193758624612752,0.006572376564879856,-0.014626651136878055,0.02588033402705142,0.0032560984171348117
135,0.055989034148339833,-0.01900826181288051,0.010079396383214756,-0.017571647965472725,0.02598440596241175,0.0034877348812673015
136,0.06293437494543275,-0.022898394769176045,0.013579882216023575,-0.020494611170344124,0.02594369762079196,0.003826401770682608
137,0.06993784794151614,-0.026865422770371183,0.017071157291802308,-0.02339245763150377,0.025750830509896516,0.004277347218695549
138,0.0769967794090235,-0.030909684356947964,0.02055027917135166,-0.026262008687014282,0.025399532798721203,0.00484497343996243
139,0.08410748442511223,-0.03503064322854399,0.0240140637026498,-0.029100005081036606,0.024884594871050214,0.005532871875328638
140,0.09126533511793361,-0.03922693913278247,0.02745910841755017,-0.03190312152307129,0.02420182556071232,0.006343857780789441
141,0.09846482746657059,-0.04349643774738443,0.030881815370302657,-0.03466798085839262,0.02334800906859913,0.007280004260560968
142,0.10569964665464515,-0.04783627955556674,0.03427841341790078,-0.03739116784967739,0.022320862561442778,0.008342675744264838
143,0.1129627309775928,-0.052242927714720944,0.03764497994225213,-0.040069242569825414,0.02111899445235399,0.009532560908224408
144,0.12024633430360332,-0.056712214918377024,0.04097746201417307,-0.04269875340597423,0.01974186336312178,0.01084970504087207
145,0.12754208708823256,-0.06123938925144978,0.044271696999208465,-0.045276249674707225,0.018189737768272096,0.012293541852269718
146,0.13484105594268092,-0.06581915903876967,0.04752343260527614,-0.04779829384845502,0.016463656320888143,0.013862924727740922
147,0.1421338017557392,-0.07044573668689613,0.050728346372134414,-0.050261473393090006,0.014565388860190653,0.015556157425614892
148,0.14941043636940354,-0.07511288151921469,0.05388206460267575,-0.05266241221671458,0.01249739810087852,0.01737102421908243
149,0.15666067780815762,-0.07981394160431732,0.056980180736042774,-0.0549977817296422,0.010262802004230132,0.01930481948216478
150,0.16387390406192348,-0.08454189457766648,0.060018273162571356,-0.05726431151557282,0.00786533683096563,0.021354376719792456
151,0.17103920542268025,-0.08928938745654252,0.06299192248055485,-0.05945879961396017,0.005309320875868273,0.02351609704199875
152,0.17814543537474992,-0.09404877544827417,0.065896728194836,-0.06157812241357413,0.0025996188841680423,0.025785977082223244
153,0.18518126003875313,-0.09881215975175328,0.06872832485722091,-0.06361924415725503,-0.00025839285031581394,0.028159636359728346
154,0.19213520616923097,-0.10357142435223146,0.07148239764871855,-0.06557922605786198,-0.003258860705270483,0.03063234408612675
155,0.19899570770593633,-0.10831827180940218,0.07415469740360403,-0.06745523502541467,-0.0063954872682261965,0.033199045416022865
156,0.20575115087879114,-0.11304425803876425,0.07674105507530693,-0.06924455200542787,-0.009661564193130912,0.035854387141764366
